Data from deut_7ms_571_SR4014911__0__14-56-25-761.txt Node

Date: Thu Jul 10 14:56:25 EDT 2025
User: cryst
Spectrometer: SR401491
Trigger mode: 0
Integration Time (sec): 7.000000E-3
Scans to average: 571
Electric dark correction enabled: true
Nonlinearity correction enabled: true
Boxcar width: 0
XAxis mode: Wavelengths
Number of Pixels in Spectrum: 3648
>>>>>Begin Spectral Data<<<<<
344.912	-19.72466
345.129	-11.45939
345.347	-12.03334
345.565	-1.92533
345.783	2.69081
346.001	8.51795
346.219	-3.69424
346.437	4.96618
346.654	3.01478
346.872	8.65704
347.09	-1.5403
347.308	13.10179
347.526	-0.00788
347.743	7.09463
347.961	2.32109
348.179	8.12926
348.397	1.92849
348.614	19.89226
348.832	14.92481
349.05	24.42271
349.268	13.01035
349.485	19.55515
349.703	4.33351
349.921	24.89495
350.138	13.95331
350.356	22.94311
350.574	14.4924
350.791	23.53915
351.009	15.26007
351.227	17.97624
351.444	8.79423
351.662	22.17948
351.879	16.62962
352.097	26.70955
352.314	15.3896
352.532	24.46651
352.75	12.37026
352.967	21.3206
353.185	16.49438
353.402	23.75433
353.62	12.45789
353.837	24.7826
354.055	11.53392
354.272	26.26591
354.49	15.23912
354.707	26.44489
354.925	12.18547
355.142	20.14175
355.359	15.4277
355.577	27.47876
355.794	17.44294
356.012	24.90637
356.229	17.95339
356.446	22.23852
356.664	14.28096
356.881	28.71441
357.099	16.07152
357.316	25.90032
357.533	12.1226
357.751	25.78989
357.968	20.55692
358.185	24.6455
358.402	16.83914
358.62	27.04846
358.837	23.10688
359.054	24.97683
359.272	15.24483
359.489	23.54487
359.706	14.22953
359.923	29.0495
360.141	19.21995
360.358	29.09709
360.575	17.39532
360.792	24.98254
361.009	15.59342
361.226	29.37696
361.444	21.17206
361.661	20.73594
361.878	17.17056
362.095	24.12756
362.312	21.36631
362.529	23.88382
362.746	14.02951
362.963	22.61176
363.181	13.26562
363.398	25.08155
363.615	18.33432
363.832	21.60055
364.049	12.55124
364.266	32.99781
364.483	16.69629
364.7	26.41061
364.917	13.84854
365.134	27.03704
365.351	13.12084
365.568	27.53588
365.785	16.28676
366.002	20.95495
366.219	17.70388
366.436	29.21132
366.652	21.63864
366.869	23.76195
367.086	20.65215
367.303	21.1892
367.52	16.80867
367.737	31.34545
367.954	13.09226
368.171	26.30399
368.387	20.18364
368.604	25.18628
368.821	17.35722
369.038	22.78506
369.255	16.4201
369.471	20.65976
369.688	17.68673
369.905	26.13643
370.122	19.92654
370.339	24.34654
370.555	16.93819
370.772	19.1971
370.989	25.67564
371.205	25.90794
371.422	18.4924
371.639	24.74452
371.855	12.69602
372.072	20.78165
372.289	16.32486
372.505	31.08274
372.722	13.26752
372.939	23.88001
373.155	14.23905
373.372	20.05604
373.589	19.91511
373.805	20.31505
374.022	8.98857
374.238	19.64467
374.455	21.08065
374.671	26.50391
374.888	18.35527
375.104	20.64453
375.321	9.31056
375.537	28.10707
375.754	19.08854
375.97	25.08917
376.187	19.05235
376.403	23.55439
376.62	18.71524
376.836	24.14279
377.053	14.98958
377.269	24.86258
377.486	13.1837
377.702	15.99724
377.918	13.74948
378.135	23.56391
378.351	18.47526
378.568	23.59628
378.784	16.63343
379	22.50893
379.217	18.2886
379.433	19.46374
379.649	19.72275
379.865	22.53559
380.082	17.16485
380.298	25.04538
380.514	20.59882
380.731	26.72478
380.947	16.89057
381.163	24.78831
381.379	21.56056
381.596	23.78861
381.812	18.29241
382.028	31.4216
382.244	18.10005
382.46	26.48297
382.676	23.31064
382.893	25.97458
383.109	12.74555
383.325	24.04187
383.541	19.72656
383.757	24.7826
383.973	18.9057
384.189	35.27439
384.405	15.9039
384.622	21.60055
384.838	15.19911
385.054	29.63969
385.27	23.79623
385.486	24.48936
385.702	11.20624
385.918	27.40451
386.134	17.5496
386.35	25.93841
386.566	17.0658
386.782	27.94523
386.998	17.47532
387.214	25.15201
387.43	19.12092
387.646	32.35249
387.861	19.01426
388.077	28.19274
388.293	22.00428
388.509	28.97715
388.725	17.43341
388.941	28.267
389.157	18.72857
389.373	24.94826
389.588	18.62953
389.804	27.65202
390.02	20.68071
390.236	23.95809
390.452	17.21247
390.668	25.78417
390.883	24.76737
391.099	28.80009
391.315	20.2903
391.531	25.78798
391.746	18.16671
391.962	29.78247
392.178	18.87903
392.393	25.31767
392.609	22.72793
392.825	25.24531
393.041	19.77989
393.256	30.76672
393.472	19.39136
393.687	31.30547
393.903	24.94826
394.119	29.17134
394.334	26.25067
394.55	35.46854
394.766	18.34765
394.981	31.01801
395.197	28.78486
395.412	33.50416
395.628	24.1009
395.843	36.31744
396.059	36.5211
396.274	38.05514
396.49	29.50832
396.705	31.82518
396.921	17.58769
397.136	33.9077
397.352	23.79051
397.567	26.0755
397.783	18.71714
397.998	28.34696
398.214	24.06663
398.429	27.27123
398.644	29.41123
398.86	28.29746
399.075	25.80512
399.29	29.76914
399.506	20.13222
399.721	26.71907
399.936	20.8026
400.152	28.4612
400.367	23.45917
400.582	27.4483
400.798	21.90906
401.013	28.48975
401.228	23.61723
401.444	29.6968
401.659	20.38171
401.874	33.12916
402.089	24.98635
402.304	29.18848
402.52	20.18555
402.735	26.39538
402.95	24.34845
403.165	31.37781
403.38	22.52036
403.596	32.95212
403.811	20.76261
404.026	35.07073
404.241	21.27299
404.456	29.96333
404.671	25.78227
404.886	30.93996
405.101	20.60453
405.316	32.47813
405.532	28.16228
405.747	33.03588
405.962	25.4262
406.177	30.07946
406.392	25.70991
406.607	28.5126
406.822	27.55492
407.037	36.54013
407.252	29.89289
407.467	45.06758
407.682	33.70593
407.896	44.67942
408.111	39.14756
408.326	50.92921
408.541	46.99306
408.756	57.48755
408.971	56.6165
409.186	55.3498
409.401	47.30698
409.616	37.14158
409.83	21.25395
410.045	29.19228
410.26	14.02951
410.475	30.42405
410.69	21.82908
410.905	29.54069
411.119	18.0829
411.334	25.85843
411.549	16.25819
411.764	32.22114
411.978	21.63673
412.193	30.64679
412.408	18.81047
412.623	27.18936
412.837	28.50499
413.052	32.10311
413.267	22.73935
413.481	32.03458
413.696	17.06771
413.911	30.17656
414.125	18.34574
414.34	25.19009
414.554	20.01986
414.769	31.9394
414.984	22.08807
415.198	28.16419
415.413	18.22766
415.627	30.26413
415.842	23.34492
416.056	26.45822
416.271	18.33051
416.485	30.56873
416.7	21.02732
416.914	26.03171
417.129	20.8445
417.343	33.00733
417.558	24.09329
417.772	28.73726
417.987	21.60436
418.201	29.18657
418.415	15.77247
418.63	32.00983
418.844	19.7018
419.059	31.1665
419.273	21.73386
419.487	32.34297
419.702	19.21805
419.916	37.88004
420.13	24.62646
420.345	31.01611
420.559	20.40647
420.773	29.23227
420.988	26.56484
421.202	33.86963
421.416	21.64816
421.63	27.91096
421.845	24.16374
422.059	34.9451
422.273	19.79513
422.487	33.62408
422.701	27.82338
422.916	34.76046
423.13	16.43343
423.344	29.52355
423.558	19.60086
423.772	23.98094
423.986	18.88284
424.201	31.31499
424.415	27.91477
424.629	34.5035
424.843	20.55121
425.057	32.52001
425.271	17.27913
425.485	28.59828
425.699	16.21057
425.913	33.41279
426.127	20.15698
426.341	29.16373
426.555	24.18469
426.769	29.04759
426.983	22.11473
427.197	34.06379
427.411	18.62953
427.625	33.0968
427.839	20.01034
428.053	26.84093
428.267	20.8445
428.481	31.08655
428.695	20.68833
428.908	29.83578
429.122	25.17295
429.336	30.87904
429.55	23.24018
429.764	35.15257
429.978	31.63862
430.191	41.71287
430.405	44.55193
430.619	49.82966
430.833	58.21405
431.047	84.83924
431.26	96.67692
431.474	123.11459
431.688	124.83155
431.901	141.10414
432.115	154.88661
432.329	176.6638
432.543	180.13074
432.756	218.26916
432.97	213.25434
433.184	171.41239
433.397	82.90886
433.611	41.27329
433.824	27.37214
434.038	32.86075
434.252	19.64276
434.465	30.46022
434.679	22.24232
434.892	27.27123
435.106	18.83523
435.319	26.09835
435.533	22.29184
435.747	33.50796
435.96	21.55675
436.174	33.46228
436.387	25.53664
436.601	28.62683
436.814	22.08426
437.027	27.75674
437.241	25.21484
437.454	28.62303
437.668	27.69201
437.881	33.65834
438.095	24.75023
438.308	34.07712
438.521	25.74419
438.735	32.02506
438.948	22.408
439.161	31.58722
439.375	19.59325
439.588	32.9921
439.801	23.46108
440.015	29.63397
440.228	24.89114
440.441	37.56791
440.654	32.09359
440.868	40.5254
441.081	24.49888
441.294	37.75252
441.507	24.32179
441.721	25.32148
441.934	27.90906
442.147	31.80424
442.36	22.92978
442.573	36.46971
442.786	25.39574
443	34.61961
443.213	24.44937
443.426	31.05799
443.639	28.86863
443.852	33.34426
444.065	26.90757
444.278	37.28242
444.491	32.01174
444.704	38.37678
444.917	27.18174
445.13	32.00983
445.343	27.51113
445.556	45.07519
445.769	33.13487
445.982	30.94758
446.195	32.26111
446.408	32.62661
446.621	25.9822
446.834	33.66976
447.047	24.0114
447.26	36.76663
447.473	25.03205
447.686	34.76046
447.899	28.14324
448.111	37.39281
448.324	29.59019
448.537	30.4507
448.75	31.12653
448.963	35.77879
449.176	30.10231
449.388	37.99614
449.601	25.7975
449.814	33.65644
450.027	26.23544
450.239	32.08217
450.452	27.75103
450.665	33.50225
450.878	20.99114
451.09	33.39946
451.303	21.73576
451.516	34.26366
451.728	25.6566
451.941	28.53545
452.154	28.2689
452.366	32.73892
452.579	25.58996
452.792	36.04526
453.004	24.72738
453.217	34.38358
453.429	26.40871
453.642	32.00032
453.854	28.01758
454.067	39.88026
454.28	28.25557
454.492	33.17484
454.705	18.5743
454.917	31.58722
455.13	27.34739
455.342	38.67748
455.555	25.01681
455.767	37.77727
455.979	29.78628
456.192	40.65861
456.404	20.42551
456.617	37.0388
456.829	23.03643
457.041	38.2131
457.254	25.13677
457.466	31.52821
457.679	28.49547
457.891	42.56729
458.103	26.96659
458.315	35.64746
458.528	21.71291
458.74	34.09615
458.952	28.45358
459.165	32.28205
459.377	20.37028
459.589	34.27127
459.801	22.7165
460.014	32.85314
460.226	24.97873
460.438	36.59723
460.65	20.87116
460.862	27.60633
461.075	20.02367
461.287	31.81185
461.499	28.90861
461.711	25.19009
461.923	25.07965
462.135	31.09797
462.347	24.98825
462.559	32.85694
462.771	29.96904
462.983	32.68943
463.196	28.39837
463.408	39.1685
463.62	26.30018
463.832	38.53665
464.044	28.78295
464.256	37.51652
464.468	22.96406
464.68	31.84802
464.891	24.83592
465.103	39.25224
465.315	31.29215
465.527	32.19639
465.739	20.83117
465.951	31.58912
466.163	24.05711
466.375	29.20942
466.587	28.92003
466.799	34.3398
467.01	22.66699
467.222	27.17032
467.434	21.83479
467.646	25.19771
467.858	26.33445
468.069	30.93996
468.281	22.20614
468.493	25.5195
468.705	19.93225
468.916	25.86415
469.128	19.46564
469.34	25.42049
469.551	20.75118
469.763	28.00806
469.975	23.3373
470.186	27.77388
470.398	21.50533
470.61	28.6116
470.821	10.47847
471.033	30.08137
471.245	23.49155
471.456	26.7362
471.668	14.39906
471.879	30.99898
472.091	25.99362
472.302	30.45641
472.514	29.54259
472.725	27.96237
472.937	21.57579
473.148	25.5633
473.36	22.79267
473.571	28.24796
473.783	22.1871
473.994	30.64298
474.206	17.62388
474.417	28.72013
474.629	22.0576
474.84	37.14919
475.051	24.69882
475.263	30.06994
475.474	23.21924
475.685	34.11138
475.897	16.97057
476.108	34.57583
476.319	18.68477
476.531	32.18307
476.742	24.5979
476.953	32.54475
477.165	28.50879
477.376	31.85754
477.587	22.03665
477.798	31.1665
478.01	18.17242
478.221	31.52821
478.432	23.64579
478.643	28.85149
478.854	23.025
479.065	43.14005
479.277	28.20988
479.488	33.37091
479.699	29.23607
479.91	37.41755
480.121	27.32645
480.332	35.61129
480.543	24.65502
480.754	30.98184
480.965	22.40991
481.176	38.43768
481.387	28.53164
481.598	33.3119
481.809	32.43244
482.02	56.1239
482.231	91.52991
482.442	183.39658
482.653	326.10018
482.864	504.55256
483.075	751.60931
483.286	1070.18542
483.497	1424.81427
483.708	1725.83903
483.919	1973.15795
484.13	2202.42564
484.341	2499.52091
484.551	2940.10918
484.762	3292.59318
484.973	3430.02854
485.184	2377.51351
485.395	788.39183
485.605	247.13631
485.816	127.16303
486.027	65.70414
486.238	56.56705
486.449	51.59691
486.659	48.27156
486.87	38.64323
487.081	43.13815
487.291	32.24017
487.502	39.34168
487.713	27.08273
487.923	37.94475
488.134	28.0271
488.345	42.16197
488.555	31.71857
488.766	32.52572
488.976	34.47304
489.187	37.99614
489.398	25.18438
489.608	41.6653
489.819	25.82035
490.029	36.20324
490.24	35.13354
490.45	44.18851
490.661	32.42483
490.871	32.70275
491.082	23.40205
491.292	31.9908
491.503	30.38788
491.713	41.08489
491.924	35.00982
492.134	31.14556
492.344	30.75911
492.555	36.55155
492.765	32.27444
492.975	40.17524
493.186	30.99327
493.396	42.36368
493.607	25.44334
493.817	43.15337
494.027	34.00859
494.237	34.33599
494.448	25.74419
494.658	37.05403
494.868	26.00124
495.078	37.75443
495.289	30.68296
495.499	39.93355
495.709	26.63719
495.919	35.12212
496.129	33.3652
496.34	31.35116
496.55	22.02142
496.76	39.2294
496.97	31.28453
497.18	33.23195
497.39	26.06788
497.6	36.38596
497.81	27.48067
498.021	40.60533
498.231	36.32696
498.441	33.06063
498.651	23.85907
498.861	37.97901
499.071	27.90906
499.281	38.23404
499.491	27.8786
499.701	33.97623
499.911	26.94184
500.121	36.71524
500.331	29.62445
500.54	47.80355
500.75	34.29031
500.96	41.63105
501.17	29.26273
501.38	38.67177
501.59	27.12272
501.8	33.3119
502.01	23.80003
502.219	36.30983
502.429	33.82014
502.639	44.09908
502.849	30.91521
503.059	34.8347
503.268	28.9029
503.478	35.5561
503.688	31.45967
503.898	32.96545
504.107	25.56711
504.317	41.25616
504.527	30.89998
504.736	40.16572
504.946	26.28685
505.156	39.82317
505.365	22.88027
505.575	41.26377
505.785	27.29789
505.994	39.92403
506.204	22.91645
506.413	34.34932
506.623	16.1839
506.832	34.41213
507.042	31.54534
507.251	42.97641
507.461	26.80285
507.67	40.30465
507.88	27.55111
508.089	33.9572
508.299	28.76582
508.508	35.85873
508.718	24.69501
508.927	34.27889
509.137	34.48637
509.346	38.35394
509.555	27.29598
509.765	34.05427
509.974	42.6434
510.184	35.19064
510.393	25.88319
510.602	32.76748
510.812	30.15371
511.021	38.55187
511.23	31.87467
511.439	33.62218
511.649	30.96852
511.858	36.68479
512.067	28.89719
512.276	36.22037
512.486	46.99877
512.695	30.99517
512.904	21.73576
513.113	32.92357
513.322	29.0533
513.531	34.48446
513.741	27.57777
513.95	29.48357
514.159	24.29704
514.368	34.32267
514.577	23.3373
514.786	31.29405
514.995	20.20459
515.204	37.11493
515.413	24.65883
515.622	30.85429
515.831	29.63969
516.04	34.14945
516.249	21.49581
516.458	32.06885
516.667	28.98096
516.876	38.55378
517.085	26.16118
517.294	37.25768
517.503	23.39443
517.712	32.00412
517.921	29.93097
518.13	37.62881
518.339	29.24178
518.547	44.3217
518.756	22.4956
518.965	33.19959
519.174	23.12402
519.383	29.93287
519.591	23.56962
519.8	33.06443
520.009	27.75674
520.218	31.31119
520.426	24.42652
520.635	37.88765
520.844	26.05836
521.053	35.58655
521.261	27.02942
521.47	34.26556
521.679	27.24457
521.887	37.22723
522.096	24.09138
522.304	31.96795
522.513	24.66645
522.722	30.11944
522.93	23.76195
523.139	35.76737
523.347	24.47413
523.556	32.24779
523.764	20.8045
523.973	36.67908
524.182	26.15737
524.39	37.66117
524.598	21.37964
524.807	34.20846
525.015	23.98855
525.224	33.88867
525.432	20.20459
525.641	30.247
525.849	26.48297
526.057	35.79592
526.266	25.13106
526.474	32.01935
526.683	24.57886
526.891	37.96188
527.099	23.97522
527.308	30.26984
527.516	22.18519
527.724	36.72666
527.932	21.18158
528.141	33.39565
528.349	29.26273
528.557	30.67534
528.765	24.2799
528.974	29.36553
529.182	22.05379
529.39	33.3119
529.598	22.43657
529.806	28.62303
530.015	22.28422
530.223	29.54259
530.431	18.58192
530.639	27.80434
530.847	21.16825
531.055	31.32451
531.263	24.31798
531.471	23.98665
531.679	16.29248
531.887	34.04666
532.095	23.90667
532.303	31.72809
532.511	27.66535
532.719	32.92928
532.927	22.30898
533.135	31.84802
533.343	27.63108
533.551	34.39119
533.759	23.44775
533.967	40.06486
534.175	25.72896
534.383	40.53492
534.591	34.90703
534.798	35.61891
535.006	21.96619
535.214	31.61197
535.422	24.76546
535.63	32.79413
535.837	18.40288
536.045	29.19609
536.253	25.54045
536.461	39.16659
536.668	29.0514
536.876	34.20846
537.084	25.56139
537.292	35.79973
537.499	27.68439
537.707	39.79653
537.915	28.58876
538.122	40.6491
538.33	28.7582
538.538	34.86515
538.745	28.86863
538.953	39.43494
539.16	29.7977
539.368	28.57924
539.575	22.69746
539.783	37.30716
539.99	35.71788
540.198	31.17221
540.406	25.34813
540.613	37.55078
540.82	23.60961
541.028	37.83436
541.235	25.98791
541.443	39.2922
541.65	32.70846
541.858	36.45258
542.065	24.04758
542.272	32.58473
542.48	36.91889
542.687	35.91584
542.895	30.49068
543.102	31.92607
543.309	28.18703
543.516	35.64746
543.724	24.65693
543.931	34.88419
544.138	28.12611
544.346	30.33457
544.553	28.35458
544.76	34.78711
544.967	25.8889
545.174	39.1095
545.382	22.44228
545.589	31.53772
545.796	36.4621
546.003	32.92167
546.21	27.8786
546.417	39.80224
546.624	30.13277
546.832	37.29194
547.039	28.54306
547.246	40.36745
547.453	31.84993
547.66	36.36122
547.867	28.0271
548.074	36.2908
548.281	25.45286
548.488	38.66987
548.695	26.51914
548.902	35.20016
549.109	30.79337
549.316	33.9039
549.523	22.68794
549.73	39.58909
549.936	27.58348
550.143	34.50159
550.35	24.24943
550.557	33.5251
550.764	24.72357
550.971	31.46158
551.178	25.21484
551.384	36.57249
551.591	29.20752
551.798	37.28432
552.005	24.17517
552.211	36.50968
552.418	22.90122
552.625	30.92092
552.832	28.0728
553.038	35.01933
553.245	26.28495
553.452	37.04832
553.658	25.98791
553.865	32.48574
554.072	29.19038
554.278	36.11379
554.485	37.28242
554.691	41.21049
554.898	26.81998
555.105	34.67862
555.311	26.83331
555.518	41.96406
555.724	24.5541
555.931	31.31309
556.137	27.05227
556.344	34.2294
556.55	30.7553
556.757	36.14234
556.963	26.62006
557.17	34.69765
557.376	29.28177
557.582	41.31135
557.789	27.593
557.995	33.72497
558.202	24.07615
558.408	37.23294
558.614	25.18819
558.821	35.91393
559.027	27.63679
559.233	35.31056
559.439	31.08845
559.646	35.84922
559.852	33.46228
560.058	40.44167
560.264	31.3683
560.471	40.48544
560.677	32.16593
560.883	40.19617
561.089	32.44005
561.295	36.9246
561.502	29.47976
561.708	34.49398
561.914	28.09945
562.12	40.63958
562.326	34.08663
562.532	38.02659
562.738	24.19802
562.944	33.19007
563.15	28.92003
563.356	34.84231
563.562	30.87523
563.768	43.69949
563.974	24.86258
564.18	38.66606
564.386	30.58396
564.592	35.38479
564.798	25.82987
565.004	37.21581
565.21	18.46193
565.416	38.97628
565.622	27.99093
565.828	41.73761
566.034	34.05427
566.239	36.50016
566.445	36.31364
566.651	39.99254
566.857	39.13614
567.063	42.73284
567.268	40.23994
567.474	46.52312
567.68	39.11711
567.886	53.25183
568.091	44.85257
568.297	54.20098
568.503	43.93543
568.708	54.92946
568.914	49.97614
569.12	57.94589
569.325	50.25769
569.531	55.81959
569.737	36.90747
569.942	51.68251
570.148	52.90944
570.353	66.73841
570.559	54.17244
570.765	58.67808
570.97	51.03384
571.176	71.08987
571.381	48.77382
571.587	54.65937
571.792	46.62396
571.998	54.93326
572.203	47.52958
572.408	66.11481
572.614	63.65451
572.819	68.69656
573.025	54.19337
573.23	58.62103
573.435	55.16721
573.641	62.66766
573.846	47.80355
574.051	60.91825
574.257	60.93917
574.462	69.82766
574.667	49.37879
574.873	62.79696
575.078	61.8253
575.283	68.08061
575.488	59.01469
575.694	72.21327
575.899	57.42289
576.104	67.8886
576.309	62.93577
576.514	70.98722
576.719	77.73453
576.925	95.14621
577.13	75.07762
577.335	79.96742
577.54	64.18119
577.745	65.86575
577.95	58.60391
578.155	64.78772
578.36	49.5405
578.565	62.39195
578.77	66.59772
578.975	76.7425
579.18	62.98711
579.385	76.97625
579.59	79.1541
579.795	68.4171
580	54.69361
580.205	67.52359
580.41	74.08169
580.615	117.73725
580.82	116.97819
581.024	108.03868
581.229	92.85189
581.434	96.46612
581.639	70.70589
581.844	64.70977
582.049	51.66159
582.253	67.95894
582.458	51.42
582.663	55.60657
582.868	49.05918
583.072	55.01885
583.277	57.67774
583.482	75.29809
583.686	72.525
583.891	76.70449
584.096	67.06351
584.3	84.56565
584.505	64.40936
584.71	70.84846
584.914	73.94864
585.119	74.72791
585.323	59.38552
585.528	57.75571
585.733	55.43729
585.937	64.83906
586.142	45.47476
586.346	71.45484
586.551	64.78012
586.755	69.1433
586.959	75.70291
587.164	82.60675
587.368	66.01025
587.573	71.5841
587.777	93.32862
587.982	226.19802
588.186	452.83718
588.39	245.27193
588.595	149.72396
588.799	275.21012
589.003	144.94709
589.208	72.98688
589.412	59.46349
589.616	64.69266
589.82	55.86333
590.025	53.70643
590.229	41.36463
590.433	52.40916
590.637	47.24991
590.842	63.31416
591.046	59.26762
591.25	61.83481
591.454	46.23011
591.658	56.81429
591.862	69.01403
592.067	105.02972
592.271	83.76386
592.475	75.08142
592.679	73.25109
592.883	70.86747
593.087	65.35621
593.291	65.23453
593.495	53.12628
593.699	53.91947
593.903	59.34749
594.107	89.79756
594.311	79.8078
594.515	75.85306
594.719	56.87896
594.923	64.49302
595.127	67.63195
595.33	72.19426
595.534	44.92487
595.738	67.64716
595.942	61.64846
596.146	56.2228
596.35	53.88333
596.553	58.83973
596.757	58.91009
596.961	84.50865
597.165	55.89567
597.369	54.24663
597.572	49.34835
597.776	59.22388
597.98	67.42473
598.183	82.91076
598.387	69.88849
598.591	65.00257
598.794	52.3559
598.998	66.42281
599.202	63.09359
599.405	74.04938
599.609	60.9753
599.812	78.30845
600.016	71.64302
600.22	82.33313
600.423	74.43901
600.627	79.40494
600.83	52.85998
601.034	79.49995
601.237	78.22673
601.441	58.41373
601.644	57.00829
601.847	76.23316
602.051	68.73268
602.254	63.53662
602.458	66.85438
602.661	83.75436
602.864	65.92279
603.068	64.85237
603.271	49.01543
603.475	67.8848
603.678	56.97215
603.881	62.46801
604.084	50.47075
604.288	56.7192
604.491	64.31429
604.694	74.43141
604.897	50.19111
605.101	61.89565
605.304	62.60111
605.507	60.60829
605.71	38.46052
605.913	65.17939
606.116	58.07141
606.32	70.82945
606.523	55.16341
606.726	59.28093
606.929	53.68551
607.132	63.57845
607.335	60.28121
607.538	58.18932
607.741	48.09653
607.944	52.03062
608.147	45.45573
608.35	55.12346
608.553	46.07219
608.756	57.42669
608.959	51.44283
609.162	71.86542
609.365	58.38901
609.568	65.7954
609.771	40.17714
609.973	64.52534
610.176	52.68498
610.379	54.01838
610.582	46.69245
610.785	60.80416
610.988	51.72246
611.19	50.0199
611.393	42.13723
611.596	50.54685
611.799	42.00212
612.001	61.3404
612.204	41.36273
612.407	53.26324
612.609	46.06268
612.812	59.73543
613.015	49.8639
613.217	52.59558
613.42	40.78231
613.623	52.77058
613.825	57.04632
614.028	61.76065
614.23	47.84731
614.433	49.05538
614.636	47.89867
614.838	63.39972
615.041	54.09066
615.243	45.67454
615.446	33.57078
615.648	42.29327
615.85	38.03991
616.053	44.15045
616.255	40.80515
616.458	48.54172
616.66	35.62081
616.863	38.30446
617.065	37.39852
617.267	50.62484
617.47	39.69566
617.672	40.91742
617.874	33.67738
618.077	41.80802
618.279	39.00863
618.481	52.36922
618.683	35.42857
618.886	38.51381
619.088	48.32674
619.29	55.7321
619.492	37.64214
619.694	44.90014
619.897	40.45118
620.099	43.72803
620.301	24.31608
620.503	29.97666
620.705	34.80234
620.907	38.44339
621.109	33.72877
621.311	44.18089
621.513	42.82989
621.715	44.92678
621.917	43.21617
622.119	47.69701
622.321	35.25155
622.523	42.50639
622.725	34.13041
622.927	35.71217
623.129	34.88229
623.331	41.13056
623.533	26.56103
623.735	42.79373
623.937	32.84362
624.139	39.46158
624.341	30.84287
624.542	35.05169
624.744	27.24457
624.946	41.55112
625.148	27.82148
625.35	38.50429
625.551	28.55258
625.753	38.99721
625.955	23.94666
626.156	38.02849
626.358	32.43054
626.56	37.68781
626.762	36.40119
626.963	43.07916
627.165	28.40979
627.366	39.57767
627.568	29.32175
627.77	32.2535
627.971	34.65958
628.173	37.02738
628.374	27.4483
628.576	33.23576
628.777	36.88083
628.979	37.48417
629.18	20.44456
629.382	32.6761
629.583	27.256
629.785	34.15516
629.986	20.51693
630.188	32.86075
630.389	24.21706
630.591	38.02659
630.792	20.30553
630.993	24.81878
631.195	19.5742
631.396	33.20339
631.597	26.15737
631.799	31.62529
632	26.33064
632.201	33.79159
632.402	27.58539
632.604	34.09615
632.805	22.00047
633.006	32.99019
633.207	26.31351
633.409	39.41971
633.61	26.5001
633.811	33.14629
634.012	26.66766
634.213	35.69885
634.414	28.78676
634.615	33.58791
634.816	28.90861
635.017	36.41071
635.219	29.8491
635.42	35.74072
635.621	28.465
635.822	45.41958
636.023	29.18277
636.224	36.15185
636.425	22.97168
636.626	30.29459
636.826	23.70863
637.027	31.57961
637.228	19.69799
637.429	26.59721
637.63	25.48904
637.831	24.90637
638.032	21.74338
638.233	33.74971
638.433	20.92829
638.634	28.91622
638.835	20.49788
639.036	28.09945
639.237	15.13054
639.437	23.30874
639.638	18.26765
639.839	30.03758
640.039	19.01997
640.24	28.65159
640.441	22.54702
640.641	22.91455
640.842	19.91892
641.043	24.83401
641.243	13.89235
641.444	24.47032
641.645	19.62372
641.845	22.99263
642.046	16.04486
642.246	26.84854
642.447	15.53437
642.647	27.81767
642.848	23.5582
643.048	30.47545
643.249	22.12997
643.449	32.71417
643.65	15.90771
643.85	24.87781
644.05	18.52287
644.251	23.81908
644.451	20.98543
644.651	25.45476
644.852	15.85628
645.052	29.26082
645.252	18.92093
645.453	26.63148
645.653	16.48486
645.853	23.84954
646.054	16.3401
646.254	21.63864
646.454	15.25816
646.654	24.14279
646.854	17.4277
647.055	30.15181
647.255	4.86709
647.455	31.70525
647.655	23.22304
647.855	28.01568
648.055	22.00999
648.255	26.26781
648.455	20.63691
648.655	26.92661
648.856	20.28077
649.056	24.01521
649.256	22.38705
649.456	30.52875
649.656	19.50754
649.856	32.58473
650.055	23.36777
650.255	34.43497
650.455	24.92541
650.655	30.03948
650.855	35.06882
651.055	49.08962
651.255	42.16958
651.455	48.42186
651.655	36.4069
651.854	38.14269
652.054	20.98162
652.254	41.48832
652.454	39.33788
652.654	50.98438
652.853	58.75795
653.053	85.31231
653.253	135.6867
653.452	327.9443
653.652	1097.64811
653.852	2886.82027
654.051	5653.92978
654.251	9664.42783
654.451	14585.85561
654.65	20126.33899
654.85	28254.83486
655.049	43274.13921
655.249	57078.12866
655.449	44565.27864
655.648	16069.1494
655.848	4718.10754
656.047	2551.84453
656.247	1956.7359
656.446	1539.46531
656.645	1123.44121
656.845	783.99159
657.044	524.49751
657.244	337.18575
657.443	226.54394
657.643	154.69142
657.842	112.89409
658.041	85.10332
658.241	86.21474
658.44	66.50646
658.639	65.51022
658.839	52.39775
659.038	55.34029
659.237	43.55107
659.436	52.04774
659.636	45.32254
659.835	46.53453
660.034	37.50701
660.233	39.57957
660.432	33.5803
660.631	43.85742
660.831	32.836
661.03	33.81443
661.229	32.55808
661.428	37.59075
661.627	26.01266
661.826	38.43578
662.025	27.24267
662.224	34.01049
662.423	22.41562
662.622	30.66011
662.821	25.14439
663.02	35.79592
663.219	22.00618
663.418	38.88873
663.617	25.51379
663.816	36.04526
664.015	21.64626
664.214	29.4455
664.412	21.47296
664.611	30.58967
664.81	25.24721
665.009	30.87904
665.208	22.17567
665.406	23.21924
665.605	19.60467
665.804	27.18745
666.003	16.01438
666.201	22.11283
666.4	15.03339
666.599	22.33564
666.798	20.40837
666.996	28.77724
667.195	10.77568
667.394	22.67842
667.592	21.48057
667.791	24.81688
667.989	18.85427
668.188	27.91287
668.386	22.96787
668.585	25.57092
668.783	21.39297
668.982	29.59019
669.18	18.91332
669.379	24.03235
669.577	17.66959
669.776	22.96977
669.974	21.05018
670.173	25.7042
670.371	11.98924
670.57	19.25995
670.768	14.20286
670.966	30.19369
671.165	22.85361
671.363	25.71944
671.561	17.30389
671.76	29.9995
671.958	22.51845
672.156	32.15832
672.354	16.10962
672.553	19.11711
672.751	7.71008
672.949	19.94558
673.147	14.4124
673.345	19.94939
673.543	15.68485
673.742	18.08671
673.94	11.78349
674.138	21.74909
674.336	15.83152
674.534	19.3247
674.732	16.46962
674.93	24.8283
675.128	6.88313
675.326	14.55908
675.524	9.94311
675.722	27.60443
675.92	11.69586
676.118	22.46513
676.316	16.20105
676.514	22.63271
676.712	11.43867
676.91	17.45246
677.108	13.49612
677.305	28.20607
677.503	14.14571
677.701	22.34135
677.899	5.53022
678.097	19.61991
678.295	8.05305
678.492	22.64414
678.69	19.33042
678.888	19.58182
679.085	16.97819
679.283	24.38082
679.481	7.51954
679.679	20.53407
679.876	10.95286
680.074	21.74528
680.271	11.57203
680.469	22.22138
680.667	13.24466
680.864	22.0119
681.062	15.7439
681.259	24.01521
681.457	9.12194
681.654	19.18758
681.852	5.01191
682.049	18.0829
682.247	6.39914
682.444	20.09794
682.642	9.68018
682.839	15.00863
683.037	9.62112
683.234	26.3078
683.431	11.25006
683.629	15.50389
683.826	12.59315
684.023	25.51379
684.221	21.42916
684.418	28.62112
684.615	22.03856
684.813	26.62387
685.01	15.88676
685.207	21.79099
685.404	9.68971
685.601	24.85877
685.799	18.27146
685.996	21.61388
686.193	13.10369
686.39	15.15911
686.587	10.63469
686.784	23.92381
686.981	13.93426
687.179	23.71625
687.376	6.02185
687.573	22.77554
687.77	16.25248
687.967	16.01438
688.164	10.83664
688.361	19.71704
688.558	7.68912
688.755	18.46002
688.952	17.55722
689.148	22.87266
689.345	10.04218
689.542	15.02958
689.739	14.12285
689.936	18.45812
690.133	13.58375
690.33	18.8638
690.526	15.68104
690.723	24.40938
690.92	14.02951
691.117	14.30953
691.314	9.54872
691.51	11.90161
691.707	10.72805
691.904	17.57626
692.1	8.94284
692.297	18.64286
692.494	4.78133
692.69	28.2689
692.887	16.69819
693.084	20.91687
693.28	10.51086
693.477	17.82006
693.673	9.92596
693.87	18.22385
694.066	5.90752
694.263	17.24485
694.459	9.32771
694.656	20.04081
694.852	10.58516
695.049	19.39708
695.245	10.43846
695.442	14.65623
695.638	4.65937
695.834	14.01998
696.031	6.31911
696.227	20.6769
696.423	16.92676
696.62	27.45972
696.816	16.04866
697.012	18.20099
697.209	9.73924
697.405	23.64198
697.601	12.57981
697.797	14.58384
697.994	12.85985
698.19	15.1934
698.386	9.13909
698.582	20.49217
698.778	5.43114
698.974	13.99522
699.17	7.76915
699.367	15.38007
699.563	13.7933
699.759	11.59298
699.955	9.49156
700.151	12.21976
700.347	5.70363
700.543	19.75132
700.739	13.33801
700.935	17.45436
701.131	5.02525
701.327	16.53629
701.523	13.76663
701.718	14.65813
701.914	11.25197
702.11	23.1583
702.306	11.673
702.502	14.61813
702.698	4.72226
702.894	16.22962
703.089	3.70465
703.285	11.93971
703.481	3.97144
703.677	17.7934
703.872	5.19675
704.068	16.75914
704.264	2.70796
704.459	7.46619
704.655	1.77412
704.851	13.59708
705.046	4.00384
705.242	12.49409
705.438	3.23013
705.633	16.34391
705.829	9.1429
706.024	21.17396
706.22	18.48669
706.415	20.33029
706.611	12.06926
706.806	16.61629
707.002	10.41941
707.197	19.61039
707.393	13.3723
707.588	16.47914
707.784	13.62185
707.979	16.7039
708.174	7.06605
708.37	12.69792
708.565	10.98906
708.76	15.76294
708.956	7.05462
709.151	12.40836
709.346	7.27565
709.542	15.20864
709.737	3.7237
709.932	16.16676
710.127	8.96951
710.322	17.51722
710.518	2.9557
710.713	12.89033
710.908	1.89991
711.103	15.43722
711.298	6.50775
711.493	12.275
711.688	6.97459
711.883	15.05054
712.078	11.1548
712.273	25.7975
712.468	7.34615
712.663	13.07321
712.858	8.12355
713.053	17.30199
713.248	8.94094
713.443	16.75343
713.638	3.32922
713.833	15.8658
714.028	4.55838
714.223	23.90096
714.418	12.16451
714.613	18.82571
714.807	10.79663
715.002	14.67527
715.197	7.79201
715.392	13.67519
715.587	2.30393
715.781	15.02196
715.976	7.23945
716.171	15.89438
716.365	5.78557
716.56	19.46374
716.755	4.95284
716.949	13.76853
717.144	4.1258
717.339	14.30191
717.533	9.0362
717.728	16.94771
717.922	9.03048
718.117	14.28286
718.312	7.48524
718.506	15.6277
718.701	15.09816
718.895	21.20253
719.089	9.99455
719.284	16.45819
719.478	3.94857
719.673	6.85455
719.867	11.53964
720.062	19.99891
720.256	1.46157
720.45	13.69233
720.645	-1.9463
720.839	16.062
721.033	4.88233
721.228	13.50946
721.422	3.98669
721.616	15.94771
721.81	7.00317
722.005	15.34388
722.199	8.9276
722.393	10.72424
722.587	2.69843
722.781	17.15152
722.975	9.60016
723.169	19.52849
723.364	5.49974
723.558	14.96672
723.752	5.99327
723.946	16.73819
724.14	3.39974
724.334	16.17057
724.528	7.01651
724.722	17.1439
724.916	11.73015
725.11	15.06577
725.304	7.25469
725.498	19.55706
725.692	8.73897
725.885	20.33981
726.079	14.04475
726.273	11.68062
726.467	7.66816
726.661	16.12295
726.855	13.95522
727.048	16.73248
727.242	7.18228
727.436	16.12295
727.63	8.11021
727.823	17.30961
728.017	4.89567
728.211	15.08863
728.405	9.92786
728.598	10.20222
728.792	5.03097
728.986	20.37028
729.179	10.79663
729.373	14.62575
729.566	9.63446
729.76	19.01997
729.953	11.36627
730.147	19.85988
730.34	12.67125
730.534	30.3517
730.727	12.22357
730.921	16.35533
731.114	14.17238
731.308	16.05438
731.501	11.65395
731.695	10.08409
731.888	3.41308
732.081	20.6312
732.275	6.84121
732.468	17.13247
732.661	8.21119
732.855	17.41246
733.048	3.87235
733.241	14.56479
733.434	12.17594
733.628	21.9681
733.821	16.53438
734.014	17.37056
734.207	6.7326
734.4	16.07914
734.594	9.27246
734.787	18.63144
734.98	14.35335
735.173	24.59028
735.366	-0.00407
735.559	17.9191
735.752	5.12053
735.945	14.15714
736.138	9.22101
736.331	19.57039
736.524	15.00482
736.717	14.09999
736.91	8.22072
737.103	14.42764
737.296	8.16928
737.489	18.02005
737.682	0.81357
737.875	11.25197
738.067	11.32627
738.26	17.04676
738.453	8.678
738.646	13.49231
738.839	7.55003
739.031	12.24643
739.224	7.79582
739.417	14.93815
739.61	11.30531
739.802	14.6086
739.995	5.40636
740.188	22.00428
740.38	8.90473
740.573	14.27334
740.765	0.14841
740.958	11.04621
741.151	3.94667
741.343	15.28483
741.536	5.09194
741.728	14.83338
741.921	0.76402
742.113	15.49817
742.306	4.29921
742.498	14.02951
742.691	7.89871
742.883	11.35294
743.076	0.66491
743.268	7.35377
743.46	11.3034
743.653	10.50514
743.845	1.22715
744.037	14.68861
744.23	2.01235
744.422	12.70174
744.614	1.69408
744.807	9.08002
744.999	1.35675
745.191	15.92485
745.383	1.95899
745.575	11.82541
745.768	6.69258
745.96	17.28485
746.152	9.49728
746.344	8.66467
746.536	10.07076
746.728	18.87332
746.92	9.93929
747.112	18.44288
747.304	8.28931
747.496	11.80254
747.688	4.08578
747.88	10.7833
748.072	12.77222
748.264	12.34359
748.456	5.98374
748.648	11.27483
748.84	4.78705
749.032	10.64041
749.224	8.60751
749.416	16.48867
749.608	10.73948
749.799	20.4617
749.991	9.04573
750.183	19.80084
750.375	6.08854
750.567	16.92676
750.758	1.45013
750.95	14.75909
751.142	7.21658
751.333	14.92481
751.525	5.96659
751.717	16.15724
751.908	8.45508
752.1	8.85329
752.292	-3.60846
752.483	15.96485
752.675	5.6236
752.866	15.82771
753.058	16.18962
753.249	20.90353
753.441	5.75127
753.632	12.69983
753.824	6.91171
754.015	6.11903
754.207	12.38169
754.398	17.59341
754.589	5.21962
754.781	13.48279
754.972	-2.77927
755.164	11.87684
755.355	2.20865
755.546	14.25429
755.738	3.88378
755.929	19.33232
756.12	10.76615
756.311	21.95857
756.503	8.39411
756.694	16.60486
756.885	8.35981
757.076	28.19846
757.267	11.60632
757.458	25.85082
757.65	15.29817
757.841	19.65038
758.032	19.65038
758.223	20.95305
758.414	12.91129
758.605	23.41347
758.796	5.82558
758.987	22.92788
759.178	11.01763
759.369	10.60993
759.56	7.06415
759.751	13.9495
759.942	10.45561
760.133	15.5877
760.324	11.83112
760.514	13.9114
760.705	10.6728
760.896	14.62575
761.087	9.80593
761.278	10.0498
761.468	6.44297
761.659	17.81244
761.85	5.98565
762.041	11.43105
762.231	8.36172
762.422	10.82331
762.613	9.49728
762.803	17.09247
762.994	13.38373
763.185	14.54003
763.375	9.09145
763.566	15.5077
763.757	2.96714
763.947	15.78199
764.138	7.95778
764.328	24.15422
764.519	18.80666
764.709	16.78771
764.9	10.1984
765.09	17.32484
765.281	8.14451
765.471	11.60251
765.661	4.79086
765.852	15.59913
766.042	9.56777
766.232	4.7032
766.423	1.48444
766.613	16.65248
766.803	4.19059
766.994	15.45436
767.184	3.88187
767.374	23.45917
767.564	15.83723
767.755	14.0638
767.945	5.62741
768.135	14.57432
768.325	13.45802
768.515	18.09624
768.706	6.98602
768.896	18.70953
769.086	10.69376
769.276	16.33819
769.466	4.86709
769.656	14.11714
769.846	11.34151
770.036	17.36484
770.226	9.2515
770.416	18.65048
770.606	5.81606
770.796	18.90189
770.986	9.98883
771.176	9.37344
771.366	3.00144
771.555	12.89605
771.745	2.47927
771.935	17.3077
772.125	0.63251
772.315	13.81425
772.504	4.12199
772.694	10.33177
772.884	8.15213
773.074	8.72564
773.263	5.81034
773.453	11.95305
773.643	6.4887
773.832	12.01782
774.022	8.87806
774.212	11.8235
774.401	-0.89606
774.591	8.43603
774.781	0.30088
774.97	12.69792
775.16	3.19201
775.349	15.78009
775.539	4.96046
775.728	10.64803
775.918	9.53538
776.107	25.45096
776.297	26.87901
776.486	54.5928
776.675	56.122
776.865	54.1287
777.054	19.16091
777.243	16.76867
777.433	5.13387
777.622	17.86768
777.811	3.34256
778.001	17.28485
778.19	1.54161
778.379	6.79357
778.568	5.07861
778.758	15.1153
778.947	8.28931
779.136	12.95129
779.325	9.99645
779.514	5.64265
779.703	8.63418
779.892	12.01401
780.082	-2.26462
780.271	9.25531
780.46	6.64876
780.649	18.84475
780.838	10.33749
781.027	12.30358
781.216	0.41524
781.405	8.58655
781.594	6.02185
781.783	17.19152
781.971	10.6747
782.16	12.01401
782.349	16.61629
782.538	10.30129
782.727	6.66972
782.916	13.47707
783.105	8.62846
783.293	17.51912
783.482	8.67419
783.671	19.40279
783.86	9.02477
784.048	10.14315
784.237	-1.79
784.426	6.95172
784.614	1.00988
784.803	13.77996
784.992	2.2582
785.18	8.94856
785.369	1.28051
785.557	9.92786
785.746	5.98946
785.935	12.16642
786.123	1.24621
786.312	4.44785
786.5	7.61672
786.689	9.88976
786.877	1.46347
787.065	11.44819
787.254	-2.62678
787.442	6.6297
787.631	4.80611
787.819	14.46955
788.007	7.71199
788.196	15.00101
788.384	7.39188
788.572	14.18762
788.761	0.8212
788.949	5.70172
789.137	1.8332
789.325	6.7688
789.513	0.87456
789.702	10.81569
789.89	4.39449
790.078	10.7852
790.266	0.56199
790.454	11.00811
790.642	2.93284
790.83	14.22762
791.018	3.19773
791.207	7.90634
791.395	8.5351
791.583	9.93167
791.771	7.48334
791.959	14.06951
792.146	0.26277
792.334	8.33504
792.522	1.67883
792.71	13.84473
792.898	-1.19722
793.086	12.9932
793.274	7.40141
793.462	17.34389
793.65	9.74496
793.837	15.7839
794.025	4.69749
794.213	8.2855
794.401	8.68562
794.588	10.60612
794.776	3.35209
794.964	5.12243
795.151	2.91187
795.339	12.26738
795.527	0.76021
795.714	10.77187
795.902	0.96604
796.089	5.00238
796.277	-4.04117
796.465	16.95343
796.652	3.47978
796.84	8.3541
797.027	5.82749
797.215	10.65946
797.402	7.40141
797.59	13.65614
797.777	5.27679
797.964	12.0464
798.152	1.91896
798.339	17.82387
798.526	4.03052
798.714	-0.99518
798.901	4.73941
799.088	11.60251
799.276	2.17244
799.463	10.40988
799.65	2.01235
799.837	13.42373
800.025	-0.45197
800.212	13.81616
800.399	1.29957
800.586	12.25024
800.773	1.52446
800.96	6.89266
801.148	4.85946
801.335	11.02716
801.522	6.16476
801.709	9.6154
801.896	0.13316
802.083	8.98476
802.27	-1.78047
802.457	9.33533
802.644	2.74607
802.831	9.90119
803.018	2.59361
803.204	11.42343
803.391	1.25573
803.578	6.50394
803.765	1.95517
803.952	12.29977
804.139	0.28564
804.326	9.88214
804.512	1.41583
804.699	14.49431
804.886	7.14799
805.073	9.96406
805.259	1.49397
805.446	25.15201
805.633	5.25964
805.819	16.39153
806.006	5.27869
806.192	12.39693
806.379	0.13888
806.566	5.37206
806.752	0.64967
806.939	10.09933
807.125	-1.53077
807.312	13.31896
807.498	3.04908
807.685	10.26699
807.871	3.1863
808.058	12.04068
808.244	4.03623
808.43	11.95876
808.617	5.22724
808.803	14.59146
808.99	-1.08476
809.176	13.52279
809.362	-0.81982
809.549	12.17785
809.735	0.39427
809.921	2.07333
810.107	4.26682
810.293	9.60397
810.48	-0.87891
810.666	15.22959
810.852	3.49502
811.038	10.83283
811.224	1.30148
811.41	9.96978
811.597	7.10035
811.783	4.92997
811.969	-0.91703
812.155	10.0155
812.341	1.58545
812.527	8.819
812.713	2.35158
812.899	10.14315
813.085	6.41629
813.271	14.66194
813.456	5.77794
813.642	12.25786
813.828	-3.14907
814.014	12.53028
814.2	2.00091
814.386	12.76651
814.572	-1.48122
814.757	13.09036
814.943	7.1899
815.129	9.0705
815.315	3.59602
815.5	13.35325
815.686	0.41143
815.872	7.92348
816.057	-1.20293
816.243	10.08028
816.429	-1.16481
816.614	12.13403
816.8	4.38497
816.985	10.23841
817.171	3.49693
817.356	11.02335
817.542	2.79562
817.727	9.362
817.913	-2.76783
818.098	10.69947
818.284	1.43107
818.469	10.43274
818.655	4.20393
818.84	9.05525
819.025	-1.61655
819.211	13.11322
819.396	1.72076
819.581	7.67769
819.767	-0.40051
819.952	14.62956
820.137	3.03003
820.322	13.82949
820.508	9.67637
820.693	10.13934
820.878	1.85988
821.063	11.88256
821.248	3.67034
821.433	4.70701
821.618	-1.37257
821.804	11.1148
821.989	3.54647
822.174	16.24295
822.359	6.73831
822.544	8.25692
822.729	3.67416
822.914	10.16411
823.099	0.15984
823.284	13.75139
823.469	0.07027
823.653	8.73326
823.838	2.96714
824.023	13.32467
824.208	-5.75303
824.393	14.30191
824.578	4.99095
824.762	5.04812
824.947	4.10484
825.132	10.05551
825.317	-0.64638
825.501	10.10695
825.686	4.1925
825.871	7.90634
826.056	-1.18006
826.24	14.04856
826.425	1.96661
826.609	11.93971
826.794	2.43925
826.979	13.97808
827.163	2.95761
827.348	4.32208
827.532	-0.4291
827.717	9.88214
827.901	1.10327
828.086	9.98312
828.27	3.35781
828.455	9.05525
828.639	4.10293
828.823	5.32824
829.008	3.19964
829.192	7.88157
829.376	-1.87958
829.561	9.04001
829.745	-6.5804
829.929	1.56258
830.114	4.84231
830.298	15.93438
830.482	-2.84599
830.666	11.28816
830.85	1.09183
831.035	11.96638
831.219	-4.87993
831.403	4.09721
831.587	-1.01614
831.771	13.04273
831.955	-1.99014
832.139	6.30577
832.323	-0.70546
832.507	6.47726
832.691	1.38152
832.875	8.38458
833.059	6.20669
833.243	4.4993
833.427	1.35865
833.611	12.59696
833.795	-2.83264
833.979	13.55708
834.163	-2.56388
834.346	10.24985
834.53	2.1267
834.714	10.72614
834.898	2.4888
835.082	11.52821
835.265	-0.50152
835.449	7.03175
835.633	0.39427
835.816	8.68181
836	2.00854
836.184	7.20896
836.367	4.33161
836.551	13.08845
836.735	2.81658
836.918	8.11974
837.102	-0.1432
837.285	12.10545
837.469	-5.01718
837.652	13.17037
837.836	0.60392
838.019	6.05615
838.203	7.98636
838.386	7.00127
838.569	-1.71376
838.753	15.9039
838.936	-3.06138
839.12	9.74877
839.303	4.61555
839.486	7.59004
839.669	-5.76065
839.853	13.44469
840.036	1.59688
840.219	8.90283
840.402	-2.61534
840.586	7.82059
840.769	0.34853
840.952	8.2131
841.135	1.06705
841.318	7.188
841.501	-0.02884
841.684	5.95706
841.868	-1.12479
842.051	11.56822
842.234	-3.9878
842.417	5.88846
842.6	2.82611
842.783	8.9295
842.966	3.58268
843.149	16.8639
843.331	4.73179
843.514	27.82719
843.697	25.92508
843.88	36.0091
844.063	19.30947
844.246	13.5247
844.429	-2.31417
844.611	6.33816
844.794	2.80134
844.977	16.71343
845.16	5.17388
845.342	9
845.525	-0.35667
845.708	6.34769
845.89	1.16235
846.073	6.89266
846.256	5.51498
846.438	8.28931
846.621	4.44404
846.803	9.53538
846.986	-5.54905
847.168	7.95588
847.351	1.05562
847.533	7.90634
847.716	0.38665
847.898	13.44659
848.081	-4.66642
848.263	12.4255
848.446	-4.98096
848.628	13.51136
848.81	-0.938
848.993	10.29176
849.175	0.17509
849.357	7.56908
849.539	1.2443
849.722	9.85737
849.904	-2.82883
850.086	14.44097
850.268	6.02757
850.451	12.95129
850.633	0.21702
850.815	4.52789
850.997	6.69068
851.179	6.01423
851.361	0.4019
851.543	4.59458
851.725	7.69865
851.907	9.2153
852.089	7.66816
852.271	13.35515
852.453	2.42781
852.635	13.29419
852.817	-2.06257
852.999	10.25175
853.181	-1.6966
853.363	5.85798
853.545	2.27154
853.727	9.52205
853.908	-2.17312
854.09	10.62517
854.272	0.82691
854.454	10.8957
854.636	6.56682
854.817	8.56559
854.999	1.28813
855.181	11.22148
855.362	1.57401
855.544	9.2515
855.726	4.73369
855.907	10.88427
856.089	-0.28234
856.27	9.29913
856.452	-5.08962
856.634	9.22482
856.815	1.11089
856.997	10.44799
857.178	3.02812
857.36	4.94521
857.541	-4.36714
857.722	6.83168
857.904	3.84948
858.085	4.26872
858.267	-1.62036
858.448	5.10719
858.629	-0.73977
858.811	8.48175
858.992	2.12098
859.173	5.96087
859.354	-1.96536
859.536	10.80235
859.717	-4.85705
859.898	6.79357
860.079	2.58027
860.26	6.58969
860.441	-0.14511
860.623	7.18419
860.804	-5.73015
860.985	12.0121
861.166	-3.58177
861.347	6.15714
861.528	-6.22581
861.709	8.70658
861.89	-3.48837
862.071	7.11369
862.252	-1.89483
862.433	8.9295
862.614	5.59501
862.794	9.02667
862.975	2.21246
863.156	14.8791
863.337	-4.63402
863.518	11.7873
863.699	0.27611
863.879	11.0043
864.06	-2.05304
864.241	6.53062
864.422	-2.24937
864.602	8.25311
864.783	0.9508
864.964	5.10909
865.144	-0.07649
865.325	11.25768
865.506	-1.64514
865.686	10.28604
865.867	2.50404
866.047	6.79548
866.228	3.17296
866.408	9.08955
866.589	-1.0352
866.769	10.84426
866.95	-0.4291
867.13	13.96855
867.31	-0.16798
867.491	3.69321
867.671	-3.77049
867.852	10.0879
868.032	4.66128
868.212	3.54076
868.393	9.3963
868.573	4.74894
868.753	-1.69088
868.933	7.27374
869.113	-0.89035
869.294	5.83892
869.474	0.99463
869.654	5.18341
869.834	-1.81859
870.014	7.93301
870.194	-3.20244
870.374	14.72099
870.555	-1.61464
870.735	6.79929
870.915	1.25002
871.095	4.75656
871.275	1.05562
871.455	10.86141
871.634	1.21571
871.814	12.11307
871.994	1.33578
872.174	13.26752
872.354	7.01651
872.534	9.23435
872.714	3.22632
872.894	1.53589
873.073	2.47355
873.253	10.69757
873.433	-4.13648
873.613	6.4887
873.792	0.26658
873.972	10.37178
874.152	-3.1605
874.331	12.49028
874.511	3.03384
874.691	4.99857
874.87	4.0591
875.05	9.87642
875.229	-4.28517
875.409	10.04408
875.588	-3.50743
875.768	8.34076
875.947	4.95665
876.127	9.56206
876.306	0.60774
876.486	9.05335
876.665	1.91896
876.844	8.59607
877.024	5.80081
877.203	10.52991
877.382	-7.01698
877.562	5.78366
877.741	1.08421
877.92	11.89018
878.1	3.46644
878.279	9.10479
878.458	-2.40186
878.637	7.93111
878.816	0.75258
878.996	5.53022
879.175	-2.14644
879.354	6.11713
879.533	1.6674
879.712	9.48204
879.891	0.00737
880.07	11.57203
880.249	0.53341
880.428	8.11974
880.607	3.51408
880.786	0.48957
880.965	1.63309
881.144	7.26803
881.323	-7.07036
881.502	10.80997
881.68	-5.86169
881.859	7.22992
882.038	0.44573
882.217	9.3963
882.396	-6.29253
882.574	7.49477
882.753	-3.91917
882.932	9.84975
883.111	5.30156
883.289	9.46489
883.468	-1.87958
883.647	4.85946
883.825	-1.94249
884.004	9.88023
884.182	-4.0812
884.361	6.61255
884.539	-3.16622
884.718	10.84045
884.896	-0.63685
885.075	7.75962
885.253	5.42732
885.432	8.84758
885.61	-3.94395
885.789	11.31484
885.967	-0.66734
886.145	12.27691
886.324	-0.01931
886.502	9.41916
886.68	0.8536
886.859	5.82749
887.037	2.29631
887.215	9.85165
887.393	-0.06506
887.572	12.51885
887.75	0.07598
887.928	9.26102
888.106	4.45928
888.284	9.90119
888.462	-0.85223
888.64	7.12131
888.819	2.50404
888.997	7.06796
889.175	-1.29061
889.353	0.36759
889.531	-2.3523
889.709	8.13879
889.887	-5.60624
890.065	13.18942
890.242	-2.20362
890.42	10.08028
890.598	-0.03075
890.776	7.66816
890.954	-1.17053
891.132	2.82611
891.309	0.60392
891.487	12.20261
891.665	0.339
891.843	10.2346
892.02	-4.23751
892.198	7.91586
892.376	-4.29661
892.553	12.08259
892.731	8.78661
892.909	5.89228
893.086	-0.33761
893.264	8.27407
893.441	4.41164
893.619	8.91998
893.797	-1.73091
893.974	9.34295
894.151	0.99273
894.329	6.26004
894.506	-4.22608
894.684	5.61597
894.861	0.08742
895.039	2.49642
895.216	0.54675
895.393	12.11688
895.571	-1.48884
895.748	8.18261
895.925	5.73031
896.102	15.36103
896.28	-1.65086
896.457	1.77984
896.634	-2.62869
896.811	3.83233
896.988	-2.35039
897.166	9.91453
897.343	-4.15173
897.52	10.97572
897.697	-3.18147
897.874	7.77105
898.051	0.97557
898.228	6.67734
898.405	0.17128
898.582	4.75466
898.759	-7.89777
898.936	10.57754
899.113	1.20428
899.29	13.39135
899.467	3.86853
899.643	11.47868
899.82	-4.27373
899.997	10.74138
900.174	-6.91022
900.351	9.05716
900.527	2.47164
900.704	11.80445
900.881	0.10838
901.058	9.12384
901.234	-0.34523
901.411	11.14528
901.588	2.1286
901.764	6.58207
901.941	0.62489
902.117	9.09907
902.294	-3.14525
902.471	13.80092
902.647	1.31291
902.824	7.98446
903	3.88187
903.176	13.14941
903.353	0.84026
903.529	8.98285
903.706	2.69652
903.882	10.98334
904.058	-5.56811
904.235	8.74469
904.411	-0.76074
904.587	6.95935
904.764	-2.18647
904.94	8.69706
905.116	-3.7743
905.292	11.39104
905.469	-0.4291
905.645	5.59692
905.821	0.63632
905.997	9.39439
906.173	-3.74189
906.349	5.55119
906.525	1.66358
906.702	7.23563
906.878	-0.25184
907.054	3.71227
907.23	-2.6954
907.406	3.64938
907.582	-0.50343
907.757	4.83278
907.933	1.93612
908.109	7.95588
908.285	-2.54291
908.461	9.20196
908.637	-1.54221
908.813	8.15784
908.988	-1.87768
909.164	8.51986
909.34	2.30203
909.516	7.10225
909.691	-2.24937
909.867	11.84827
910.043	-0.14892
910.219	9.37725
910.394	-0.91322
910.57	12.29596
910.745	-2.1026
910.921	14.13809
911.097	-6.11524
911.272	4.85184
911.448	4.14485
911.623	3.48359
911.799	-2.28558
911.974	2.51738
912.149	-1.57652
912.325	8.60179
912.5	-1.18387
912.676	5.09766
912.851	-2.05685
913.026	11.93971
913.202	-1.42975
913.377	8.85329
913.552	-7.55079
913.727	14.1038
913.903	1.70932
914.078	8.62275
914.253	6.48108
914.428	9.90881
914.603	-4.90471
914.779	5.10147
914.954	-1.40116
915.129	8.19024
915.304	1.24239
915.479	9.56206
915.654	-3.76477
915.829	13.01987
916.004	-5.14681
916.179	7.8568
916.354	-1.3497
916.529	8.60941
916.704	-0.08602
916.879	7.91205
917.053	6.39342
917.228	8.75803
917.403	2.93093
917.578	9.26865
917.753	0.73543
917.927	3.84567
918.102	-2.81358
918.277	10.26318
918.452	-1.53459
918.626	12.89224
918.801	-4.92949
918.976	6.42391
919.15	-3.313
919.325	10.1241
919.499	-1.99967
919.674	8.54653
919.849	0.78498
920.023	4.64222
920.198	0.45717
920.372	11.06907
920.547	-0.90941
920.721	5.25392
920.895	-3.04423
921.07	10.06504
921.244	4.21346
921.419	10.87856
921.593	-1.18959
921.767	8.6399
921.942	-0.42719
922.116	10.42131
922.29	0.11791
922.464	8.33123
922.639	-4.70074
922.813	5.54547
922.987	-1.4145
923.161	3.57697
923.335	-1.14194
923.509	10.50705
923.683	-0.74358
923.858	10.50514
924.032	3.7237
924.206	11.63299
924.38	-3.65421
924.554	7.57289
924.728	1.02322
924.902	16.16295
925.075	1.97423
925.249	11.70919
925.423	6.5935
925.597	7.42237
925.771	-2.73543
925.945	10.23651
926.119	2.83945
926.292	7.7863
926.466	2.39922
926.64	6.67734
926.814	2.58408
926.987	9.31818
927.161	-1.99776
927.335	8.00351
927.508	0.87075
927.682	3.15009
927.856	1.71885
928.029	9.52014
928.203	1.29957
928.376	11.34151
928.55	-3.24056
928.723	4.37925
928.897	0.1122
929.07	8.51224
929.244	-0.3986
929.417	3.76753
929.59	-1.85671
929.764	7.26803
929.937	1.27098
930.111	9.44584
930.284	-5.83691
930.457	12.02735
930.63	-3.30347
930.804	11.25959
930.977	2.33824
931.15	5.93039
931.323	6.13999
931.497	6.3515
931.67	-0.35476
931.843	8.19405
932.016	-3.12047
932.189	10.45751
932.362	-0.37573
932.535	8.12736
932.708	0.37903
932.881	4.61936
933.054	-0.03837
933.227	7.98255
933.4	-2.85361
933.573	11.03478
933.746	-1.161
933.919	8.06639
934.092	-2.06257
934.264	7.58051
934.437	-1.49837
934.61	7.09654
934.783	2.94046
934.956	5.22533
935.128	2.40113
935.301	7.47572
935.474	-0.69403
935.646	8.82662
935.819	-1.41069
935.992	7.12703
936.164	-4.85515
936.337	6.23908
936.51	-0.13367
936.682	8.23977
936.855	-3.58368
937.027	12.56838
937.2	-1.22581
937.372	5.7627
937.545	-0.45387
937.717	7.64149
937.889	1.49587
938.062	10.76234
938.234	-1.76903
938.406	11.17767
938.579	-4.28708
938.751	8.20548
938.923	1.87894
939.096	11.82731
939.268	6.79548
939.44	9.54491
939.612	-1.09429
939.784	9.44203
939.957	0.55437
940.129	5.66742
940.301	-0.66163
940.473	9.03811
940.645	-2.25127
940.817	10.54134
940.989	-7.83295
941.161	6.45249
941.333	0.57343
941.505	6.98031
941.677	-2.92795
941.849	9.181
942.021	1.62356
942.193	6.73641
942.365	-8.53837
942.537	7.33091
942.708	2.08477
942.88	5.27107
943.052	2.70033
943.224	6.34579
943.395	-1.79
943.567	8.28169
943.739	-1.8834
943.911	3.20154
944.082	-0.3357
944.254	16.38772
944.425	-8.09605
944.597	7.13084
944.769	-0.1108
944.94	4.18106
945.112	5.54547
945.283	11.32817
945.455	-2.67253
945.626	8.90283
945.798	1.85226
945.969	6.70592
946.14	-0.72071
946.312	8.28931
946.483	3.70084
946.655	9.6135
946.826	-2.9756
946.997	10.43846
947.168	-9.30291
947.34	7.3976
947.511	1.69408
947.682	6.13237
947.853	-3.67899
948.025	10.36987
948.196	-2.78499
948.367	8.75993
948.538	-3.29203
948.709	5.87132
948.88	-0.38526
949.051	10.13934
949.222	-6.05233
949.393	12.13593
949.564	-0.21182
949.735	9.11051
949.906	0.43239
950.077	3.6875
950.248	3.76563
950.419	7.7177
950.59	-2.69921
950.761	7.22039
950.931	1.97423
951.102	12.75698
951.273	-3.74952
951.444	6.96125
951.614	-0.22134
951.785	3.90474
951.956	-0.63304
952.126	10.44418
952.297	4.02099
952.468	6.8031
952.638	-2.89745
952.809	7.13465
952.98	1.21952
953.15	6.20859
953.321	-5.11631
953.491	4.58506
953.662	-1.58605
953.832	5.07289
954.002	-2.52766
954.173	2.84327
954.343	-2.37136
954.514	0.12935
954.684	-0.88463
954.854	3.66844
955.025	-0.89416
955.195	6.63732
955.365	-0.89606
955.535	8.21691
955.706	5.1796
955.876	9.6497
956.046	0.04549
956.216	7.87013
956.386	2.20865
956.557	8.3541
956.727	-0.02313
956.897	9.86499
957.067	-3.36828
957.237	7.48715
957.407	-0.54155
957.577	6.63923
957.747	-3.41593
957.917	0.45526
958.087	0.27611
958.257	4.36019
958.427	-1.98251
958.596	6.92505
958.766	1.88275
958.936	1.77984
959.106	0.84978
959.276	4.3964
959.445	-3.01563
959.615	6.1762
959.785	1.06705
959.955	15.11721
960.124	1.53971
960.294	5.90371
960.464	1.21762
960.633	6.4544
960.803	-0.10127
960.972	5.91324
961.142	-2.73543
961.311	7.63577
961.481	-1.39544
961.65	12.94939
961.82	-1.84337
961.989	13.58566
962.159	-0.96659
962.328	11.39485
962.498	5.55881
962.667	7.32138
962.836	-2.77546
963.006	7.33281
963.175	2.08858
963.344	11.974
963.513	-2.64965
963.683	2.66984
963.852	-3.34922
964.021	6.70211
964.19	-3.39115
964.359	4.77181
964.528	0.23608
964.698	4.33542
964.867	-1.45834
965.036	7.41855
965.205	4.20774
965.374	6.52109
965.543	2.79181
965.712	10.93571
965.881	-2.76212
966.05	5.78557
966.219	-0.1432
966.387	5.33586
966.556	-2.2284
966.725	9.6516
966.894	-1.75188
967.063	12.26738
967.232	3.84186
967.4	4.25348
967.569	-2.28368
967.738	10.00598
967.906	-6.00848
968.075	7.8587
968.244	-2.28177
968.412	9.97168
968.581	0.49148
968.75	9.64398
968.918	-4.10789
969.087	8.89902
969.255	0.69922
969.424	1.97614
969.592	1.81605
969.761	4.45357
969.929	0.39237
970.098	10.07266
970.266	-4.26992
970.434	8.62846
970.603	0.44764
970.771	10.09362
970.939	-0.8446
971.108	10.18888
971.276	0.25514
971.444	4.76418
971.612	-4.87802
971.781	7.74819
971.949	2.99954
972.117	7.79392
972.285	3.73895
972.453	8.2493
972.621	-4.11933
972.789	9.63255
972.957	1.57211
973.125	6.1438
973.293	-1.89102
973.461	5.36444
973.629	-3.15669
973.797	2.4907
973.965	2.53453
974.133	7.98255
974.301	-2.46476
974.469	6.13428
974.637	-1.91961
974.805	8.70468
974.972	-0.66544
975.14	11.05002
975.308	-3.2825
975.476	2.13051
975.643	4.60602
975.811	6.62589
975.979	2.02569
976.146	6.92886
976.314	4.24395
976.482	5.79128
976.649	-4.51583
976.817	6.54396
976.984	0.45908
977.152	6.87741
977.319	4.53932
977.487	9.58492
977.654	0.35234
977.822	8.13117
977.989	-1.42213
978.156	5.05955
978.324	-5.08772
978.491	6.75927
978.658	-5.47661
978.826	7.68722
978.993	-3.44643
979.16	5.67695
979.328	1.7017
979.495	9.53729
979.662	-0.42528
979.829	6.54967
979.996	1.58545
980.163	11.13004
980.33	-5.51855
980.498	8.12355
980.665	1.15663
980.832	3.53313
980.999	-5.12584
981.166	10.64613
981.333	-0.61969
981.5	8.48937
981.667	7.93682
981.833	4.53932
982	2.35539
982.167	9.00953
982.334	-0.69212
982.501	7.04319
982.668	0.10457
982.834	5.2482
983.001	0.5963
983.168	10.37559
983.335	-6.22581
983.501	6.01995
983.668	0.32375
983.835	3.80374
984.001	0.20368
984.168	5.87322
984.334	1.76078
984.501	4.64604
984.668	-2.48573
984.834	6.03328
985.001	-6.08092
985.167	9.52014
985.334	-6.38595
985.5	9.41535
985.666	-1.74807
985.833	3.64366
985.999	0.3695
986.165	7.28899
986.332	1.26145
986.498	5.64646
986.664	-0.5568
986.831	12.1226
986.997	2.44306
987.163	4.15438
987.329	-0.7169
987.495	1.73791
987.662	-1.85671
987.828	0.56962
987.994	1.57211
988.16	6.23527
988.326	-1.46978
988.492	9.6516
988.658	-1.87196
988.824	9.89738
988.99	-3.1891
989.156	3.40545
989.322	5.5207
989.488	7.18419
989.654	-3.52649
989.82	6.43916
989.985	0.41524
990.151	11.28054
990.317	2.14575
990.483	3.8914
990.648	0.72018
990.814	8.31218
990.98	2.05618
991.146	6.3172
991.311	3.44547
991.477	7.7158
991.643	-1.55555
991.808	8.3922
991.974	-2.72971
992.139	5.97231
992.305	3.12531
992.47	7.72342
992.636	-2.88983
992.801	9.16385
992.967	-2.75258
993.132	4.53742
993.298	5.23677
993.463	6.37056
993.628	2.07333
993.794	6.12665
993.959	-0.75502
994.124	1.61213
994.29	-1.45263
994.455	11.23863
994.62	-2.59247
994.785	8.98095
994.95	-1.83765
995.116	8.95237
995.281	-0.5587
995.446	7.74247
995.611	-5.27263
995.776	8.44365
995.941	3.68178
996.106	5.19103
996.271	-5.18494
996.436	12.2369
996.601	1.75888
996.766	8.05114
996.931	-2.19981
997.096	6.9784
997.261	-2.38851
997.425	10.93381
997.59	0.09504
997.755	1.33006
997.92	-1.13813
998.085	8.22644
998.249	-0.57776
998.414	4.20012
998.579	-3.09379
998.744	5.80653
998.908	-1.51362
999.073	14.00855
999.237	-1.42594
999.402	6.99746
999.567	-2.29511
999.731	7.84155
999.896	-2.7278
1000.06	10.79854
1000.225	-1.8853
1000.389	10.42322
1000.553	-0.06124
1000.718	9.99264
1000.882	-2.91842
1001.047	6.18001
1001.211	-0.90941
1001.375	6.8374
1001.54	-1.161
1001.704	11.1167
1001.868	2.34777
1002.032	16.99533
1002.197	-3.34731
1002.361	3.91236
1002.525	-2.07019
1002.689	5.81606
1002.853	-4.5978
1003.017	10.16602
1003.181	-8.95019
1003.345	4.85375
1003.509	-0.63685
1003.673	10.67851
1003.837	2.74226
1004.001	3.02622
1004.165	-1.34589
1004.329	5.41017
1004.493	-1.46597
1004.657	10.28985
1004.821	-1.17244
1004.985	10.53372
1005.149	2.91187
1005.312	8.41316
1005.476	1.7341
1005.64	14.15142
1005.804	-2.23221
1005.967	8.02447
1006.131	4.69939
1006.295	8.77327
1006.458	-1.38973
1006.622	6.02757
1006.785	-3.52459
1006.949	11.06717
1007.113	-4.96762
1007.276	7.54241
1007.44	-3.75905
1007.603	4.74513
1007.767	1.91325
1007.93	5.54737
1008.093	-4.10789
1008.257	7.77677
1008.42	-7.62324
1008.584	5.9685
1008.747	1.13376
1008.91	9.9412
1009.073	-2.30846
1009.237	5.22343
1009.4	-3.35493
1009.563	-0.0155
1009.726	1.38152
1009.889	15.93057
1010.053	-0.31474
1010.216	8.79613
1010.379	2.84898
1010.542	7.62434
1010.705	0.72209
1010.868	7.17085
1011.031	-1.35542
1011.194	8.77708
1011.357	2.30203
1011.52	10.40417
1011.683	2.58789
1011.846	11.20434
1012.009	1.24621
1012.171	9.20577
1012.334	1.82558
1012.497	9.83451
1012.66	2.07905
1012.823	10.92238
1012.985	2.72892
1013.148	4.84041
1013.311	-2.73543
1013.473	6.38009
1013.636	-3.45787
1013.799	11.20624
1013.961	3.36734
1014.124	6.58016
1014.286	-0.34523
1014.449	5.83892
1014.612	4.3621
1014.774	6.90599
1014.936	-1.46216
1015.099	3.0891
1015.261	-3.43881
1015.424	10.54896
1015.586	3.01859
1015.748	4.76418
1015.911	-3.30347
1016.073	17.54198
1016.235	-4.2947
1016.398	9.82879
1016.56	1.29957
1016.722	6.81263
1016.884	-2.58294
1017.047	9.78307
1017.209	-4.8418
1017.371	-0.35857
1017.533	-3.40831
1017.695	10.25175
1017.857	-2.15787
1018.019	10.77187
1018.181	-1.8224
1018.343	7.96921
1018.505	-0.40622
1018.667	8.90473
1018.829	-0.23659
1018.991	9.14671
1019.153	-3.86961
1019.315	5.4178
1019.477	-3.12047
1019.638	3.61127
1019.8	-3.29203
1019.962	8.88949
1020.124	0.12363
1020.285	6.31149
1020.447	-3.34731
1020.609	10.61564
1020.77	-3.55699
1020.932	10.7109
1021.094	-4.11551
1021.255	5.17388
1021.417	4.47834
1021.578	3.17867
1021.74	1.56067
1021.901	5.93801
1022.063	-3.26344
1022.224	7.16894
1022.386	0.84407
1022.547	8.7485
1022.709	-2.4457
1022.87	10.11267
1023.031	0.54294
1023.193	7.7882
1023.354	-0.9723
1023.515	6.6297
1023.676	-0.22897
1023.838	6.75356
1023.999	-0.54155
1024.16	10.81378
1024.321	-0.21372
1024.482	10.15649
1024.644	2.34967
1024.805	11.17005
1024.966	-0.56633
1025.127	7.09082
1025.288	-7.84248
1025.449	12.11117
1025.61	-4.7789
1025.771	4.45547
1025.932	-1.10573
1026.093	9.91453
1026.253	2.00473
1026.414	0.35806
1026.575	2.03712
1026.736	4.89757
1026.897	-3.5894
1027.058	10.95095
1027.218	-2.80786
1027.379	3.96382
1027.54	-3.85627
1027.7	9.42488
1027.861	2.04475
1028.022	7.6472
1028.182	1.1128
1028.343	6.32101
1028.504	-1.51934
1028.664	11.74158
1028.825	-3.35303
1028.985	6.95172
1029.146	2.5574
1029.306	8.29122
1029.466	4.64985
1029.627	9.89547
1029.787	-2.89173
1029.948	1.53589
1030.108	-1.75378
1030.268	12.45408
1030.429	-3.59511
1030.589	2.86232
1030.749	1.69789
1030.909	3.7561
1031.07	0.11601
1031.23	9.17148
1031.39	-5.204
1031.55	11.02335
1031.71	-4.24323
1031.87	7.86251
1032.03	-1.08667
1032.19	4.6346
1032.35	0.97367
1032.51	5.60073
1032.67	-2.27224
1032.83	6.53252
1032.99	-1.51171
1033.15	13.19132
1033.31	0.11601
1033.47	4.67271
1033.63	-2.32561
1033.79	8.28169
1033.949	-0.5911
1034.109	10.28033
1034.269	-0.56823
1034.429	13.33229
1034.588	-1.63942
1034.748	2.43925
1034.908	0.16366
1035.067	9.66494
1035.227	-0.09555
1035.387	5.16626
1035.546	3.49883
1035.706	5.36254
1035.865	-3.52268
1036.025	8.31027
1036.184	0.02834
1036.344	8.77708
1036.503	4.43832
1036.662	2.27154
1036.822	-3.90964
1036.981	9.32961
1037.14	2.37254
1037.3	6.67353
1037.459	-4.49486
1037.618	12.30168
1037.778	1.10136
1037.937	8.72564
1038.096	-1.95011
1038.255	5.73602
1038.414	0.50863
1038.573	9.80402
1038.733	-2.5696
1038.892	8.28169
1039.051	2.41066
1039.21	8.1064
1039.369	-4.39383
1039.528	10.58897
1039.687	2.33252
1039.846	6.92314
1040.005	-0.76836
1040.164	8.85329
1040.322	-7.51457
1040.481	6.81834
1040.64	-0.86938
1040.799	6.71926
1040.958	3.79231
1041.116	5.67314
1041.275	-2.35802
1041.434	3.44166
1041.593	-5.84072
1041.751	8.8571
1041.91	1.57592
1042.069	6.6621
1042.227	-5.76256
1042.386	11.10527
1042.544	-3.79717
1042.703	7.51383
1042.861	3.30064
1043.02	3.32351
1043.178	-1.17625
1043.337	7.76343
1043.495	1.93993
1043.653	8.14451
1043.812	-0.34333
1043.97	10.55468
1044.129	0.88409
1044.287	6.2448
1044.445	-6.03327
1044.603	3.82852
1044.762	-2.57722
1044.92	10.61374
1045.078	-0.75121
1045.236	11.93209
1045.394	-2.83836
1045.552	8.61513
