Data from deut_87ms_46_SR4014911__0__16-31-26-634.txt Node

Date: Sun Jul 13 16:31:26 EDT 2025
User: cryst
Spectrometer: SR401491
Trigger mode: 0
Integration Time (sec): 8.700000E-2
Scans to average: 46
Electric dark correction enabled: true
Nonlinearity correction enabled: true
Boxcar width: 0
XAxis mode: Wavelengths
Number of Pixels in Spectrum: 3648
>>>>>Begin Spectral Data<<<<<
344.912	-168.16833
345.129	-149.17206
345.347	-149.17206
345.565	-135.58828
345.783	53.62402
346.001	34.68131
346.219	35.53189
346.437	56.52802
346.654	94.41658
346.872	46.13829
347.09	-5.46886
347.308	93.00202
347.526	48.09848
347.743	20.1463
347.961	122.78661
348.179	75.50253
348.397	69.24997
348.614	118.4529
348.832	122.5511
349.05	133.5002
349.268	142.72704
349.485	151.26852
349.703	112.16308
349.921	171.44705
350.138	163.17045
350.356	154.86787
350.574	85.3857
350.791	131.64034
351.009	157.99633
351.227	141.36204
351.444	122.5511
351.662	143.33891
351.879	112.35156
352.097	129.56845
352.314	124.81192
352.532	145.69215
352.75	141.2679
352.967	169.14302
353.185	178.61655
353.402	121.1851
353.62	139.87929
353.837	165.1928
354.055	135.14808
354.272	180.00323
354.49	210.77447
354.707	201.75799
354.925	108.72309
355.142	153.71519
355.359	179.08662
355.577	186.7006
355.794	164.95765
356.012	203.4488
356.229	163.0999
356.446	131.09884
356.664	157.87872
356.881	201.92238
357.099	140.98547
357.316	140.58537
357.533	169.9424
357.751	142.39756
357.968	262.51689
358.185	183.29337
358.402	150.13922
358.62	208.94323
358.837	186.7241
359.054	126.57805
359.272	112.16308
359.489	133.19416
359.706	157.90224
359.923	188.18086
360.141	152.60951
360.358	168.08498
360.575	173.13969
360.792	142.58583
361.009	143.57424
361.226	152.86829
361.444	232.34132
361.661	176.12507
361.878	168.17903
362.095	132.15829
362.312	175.58443
362.529	194.3595
362.746	170.31857
362.963	128.4618
363.181	145.66862
363.398	177.74691
363.615	232.08328
363.832	129.89808
364.049	129.75681
364.266	223.44904
364.483	180.47327
364.7	131.45199
364.917	109.40641
365.134	170.81229
365.351	147.55107
365.568	203.28442
365.785	134.88913
366.002	120.59629
366.219	132.15829
366.436	174.45612
366.652	222.48691
366.869	159.7133
367.086	199.85571
367.303	116.56846
367.52	128.88563
367.737	216.59609
367.954	198.58745
368.171	150.58624
368.387	251.05533
368.604	170.90633
368.821	168.62576
369.038	119.70127
369.255	191.63449
369.471	118.2409
369.688	217.8166
369.905	188.9797
370.122	170.97686
370.339	162.65308
370.555	131.92286
370.772	121.09089
370.989	251.00844
371.205	140.25587
371.422	153.83281
371.639	132.72331
371.855	227.32069
372.072	164.25219
372.289	123.39893
372.505	227.17991
372.722	134.9833
372.939	172.55198
373.155	209.99973
373.372	135.05392
373.589	174.99677
373.805	153.38584
374.022	148.23342
374.238	123.98768
374.455	174.19754
374.671	189.68453
374.888	174.19754
375.104	124.50578
375.321	115.10793
375.537	138.49061
375.754	163.3821
375.97	186.46564
376.187	244.16212
376.403	157.36126
376.62	150.16275
376.836	151.00973
377.053	172.76356
377.269	142.27989
377.486	127.16674
377.702	101.01689
377.918	102.47817
378.135	162.70012
378.351	194.1246
378.568	171.18845
378.784	163.54672
379	176.36012
379.217	160.60703
379.433	133.73562
379.649	202.97914
379.865	143.57424
380.082	194.26554
380.298	125.87161
380.514	237.26725
380.731	156.77321
380.947	122.78661
381.163	188.9562
381.379	154.46796
381.596	162.9588
381.812	210.63361
382.028	188.15737
382.244	161.80646
382.46	143.57424
382.676	222.72158
382.893	187.10005
383.109	159.66626
383.325	163.73484
383.541	208.80236
383.757	93.16706
383.973	171.75268
384.189	227.0626
384.405	163.28804
384.622	165.56904
384.838	200.58376
385.054	191.70497
385.27	219.45951
385.486	135.40702
385.702	111.8568
385.918	177.7234
386.134	146.1863
386.35	188.06338
386.566	218.4503
386.782	195.08769
386.998	222.32264
387.214	183.01137
387.43	181.13132
387.646	234.40563
387.861	201.82844
388.077	170.154
388.293	198.44653
388.509	199.94965
388.725	175.56093
388.941	186.39515
389.157	156.93787
389.373	164.08758
389.588	196.49704
389.804	190.76525
390.02	223.4725
390.236	128.79145
390.452	157.10252
390.668	158.1845
390.883	245.28766
391.099	199.92617
391.315	194.92327
391.531	155.87936
391.746	175.20833
391.962	189.98996
392.178	187.92241
392.393	164.1111
392.609	245.31111
392.825	177.48836
393.041	152.11547
393.256	190.85922
393.472	216.97164
393.687	200.983
393.903	218.6146
394.119	180.40277
394.334	194.66488
394.55	230.04227
394.766	192.15132
394.981	238.04125
395.197	236.3525
395.412	252.88386
395.628	237.45489
395.843	260.0562
396.059	333.01456
396.274	238.60414
396.49	289.2428
396.705	213.96712
396.921	144.3273
397.136	198.89278
397.352	210.46927
397.567	175.56093
397.783	190.29538
397.998	199.3625
398.214	176.21909
398.429	157.38478
398.644	293.57378
398.86	176.31311
399.075	215.70414
399.29	174.94976
399.506	153.26822
399.721	173.7744
399.936	181.88336
400.152	163.19397
400.367	194.00715
400.582	204.99862
400.798	226.38216
401.013	156.74969
401.228	212.48822
401.444	225.7017
401.659	182.09486
401.874	249.6018
402.089	208.94323
402.304	228.30612
402.52	196.47356
402.735	169.23707
402.95	157.64351
403.165	215.77456
403.38	262.00133
403.596	171.47056
403.811	205.60913
404.026	264.11036
404.241	178.33451
404.456	188.93271
404.671	240.99632
404.886	209.99973
405.101	173.82142
405.316	189.14416
405.532	249.69558
405.747	198.54047
405.962	222.60424
406.177	210.4458
406.392	193.27893
406.607	247.30413
406.822	234.99205
407.037	263.03244
407.252	308.08369
407.467	293.66741
407.682	301.3211
407.896	317.58144
408.111	303.94208
408.326	339.46601
408.541	434.27657
408.756	454.3998
408.971	469.62318
409.186	487.95576
409.401	425.95789
409.616	232.8105
409.83	208.47366
410.045	175.02028
410.26	174.43261
410.475	164.32274
410.69	194.1246
410.905	205.18647
411.119	147.17459
411.334	183.92785
411.549	178.85159
411.764	246.7883
411.978	233.49078
412.193	200.09056
412.408	177.93494
412.623	132.25246
412.837	246.36625
413.052	214.27228
413.267	236.75124
413.481	191.70497
413.696	173.86843
413.911	179.25114
414.125	151.40968
414.34	159.80738
414.554	177.81742
414.769	213.00467
414.984	181.62485
415.198	135.94844
415.413	159.17235
415.627	186.95907
415.842	163.75836
416.056	219.20134
416.271	171.87022
416.485	207.37015
416.7	220.25746
416.914	194.54743
417.129	152.79771
417.343	193.84271
417.558	190.29538
417.772	209.15454
417.987	193.27893
418.201	188.39232
418.415	134.77143
418.63	212.74644
418.844	197.62447
419.059	220.25746
419.273	196.87286
419.487	277.06579
419.702	201.31179
419.916	283.43594
420.13	178.78108
420.345	175.11431
420.559	174.87924
420.773	158.77251
420.988	199.24507
421.202	229.0569
421.416	181.93036
421.63	193.30242
421.845	220.3044
422.059	198.6814
422.273	163.6643
422.487	210.8449
422.701	247.67927
422.916	262.32942
423.13	195.534
423.344	177.93494
423.558	164.65196
423.772	150.79799
423.986	188.9797
424.201	179.46267
424.415	250.84434
424.629	220.82071
424.843	181.95386
425.057	238.3227
425.271	145.29211
425.485	152.79771
425.699	149.24516
425.913	232.78704
426.127	214.76523
426.341	186.08968
426.555	188.67426
426.769	231.30912
426.983	244.13867
427.197	217.488
427.411	206.54836
427.625	220.02277
427.839	185.85471
428.053	208.35627
428.267	189.47309
428.481	210.96229
428.695	151.88021
428.908	143.88017
429.122	200.88906
429.336	204.34113
429.55	191.58751
429.764	232.78704
429.978	301.46152
430.191	335.56258
430.405	410.40959
430.619	395.99638
430.833	547.99621
431.047	678.21434
431.26	949.95308
431.474	1162.33303
431.688	1316.3028
431.901	1384.58964
432.115	1679.51757
432.329	1913.52543
432.543	2063.00305
432.756	2529.81528
432.97	2589.92505
433.184	1783.52765
433.397	748.47231
433.611	289.45352
433.824	251.28976
434.038	218.30948
434.252	199.76176
434.465	209.9293
434.679	173.02215
434.892	231.28566
435.106	110.96149
435.319	161.75942
435.533	239.26084
435.747	206.50139
435.96	145.85687
436.174	247.16345
436.387	228.18881
436.601	230.93376
436.814	233.42041
437.027	160.20721
437.241	224.73965
437.454	166.81528
437.668	248.52332
437.881	244.53731
438.095	196.30913
438.308	213.26289
438.521	293.64401
438.735	226.5464
438.948	228.04803
439.161	211.17357
439.375	193.23194
439.588	231.07452
439.801	226.10059
440.015	216.80733
440.228	243.24759
440.441	259.025
440.654	296.85084
440.868	275.89465
441.081	162.9588
441.294	250.70368
441.507	225.3028
441.721	189.14416
441.934	233.06854
442.147	187.24103
442.36	205.13951
442.573	233.72536
442.786	169.87187
443	237.54871
443.213	210.751
443.426	206.92404
443.639	265.16482
443.852	228.47035
444.065	254.64195
444.278	234.35871
444.491	243.59934
444.704	220.32787
444.917	257.17342
445.13	213.14552
445.343	195.60446
445.556	311.61647
445.769	320.22435
445.982	252.32125
446.195	274.51265
446.408	240.92596
446.621	292.02875
446.834	217.60536
447.047	226.89836
447.26	219.50645
447.473	236.98579
447.686	239.51882
447.899	227.20338
448.111	249.46113
448.324	257.38436
448.537	224.4346
448.75	200.58376
448.963	218.99012
449.176	263.26677
449.388	260.9702
449.601	241.95782
449.814	213.54458
450.027	204.27069
450.239	248.78122
450.452	220.25746
450.665	193.79573
450.878	218.87277
451.09	245.21731
451.303	235.83648
451.516	204.55247
451.728	266.2661
451.941	164.93414
452.154	241.20738
452.366	254.85292
452.579	208.70845
452.792	282.42899
453.004	253.98561
453.217	214.41312
453.429	239.61263
453.642	227.39108
453.854	262.84497
454.067	308.66862
454.28	315.07864
454.492	151.12736
454.705	214.76523
454.917	208.07453
455.13	298.13816
455.342	277.74503
455.555	174.90275
455.767	298.06794
455.979	232.4117
456.192	271.1862
456.404	193.32591
456.617	257.99375
456.829	218.49724
457.041	268.6794
457.254	246.53038
457.466	192.76211
457.679	208.02757
457.891	279.71238
458.103	247.30413
458.315	244.49041
458.528	185.9487
458.74	236.89197
458.952	217.88701
459.165	231.30912
459.377	193.37289
459.589	175.89001
459.801	232.34132
460.014	252.64944
460.226	223.37864
460.438	235.03896
460.65	190.81224
460.862	267.36734
461.075	208.02757
461.287	211.61962
461.499	159.31347
461.711	154.67968
461.923	196.75542
462.135	242.35648
462.347	200.06708
462.559	210.86838
462.771	237.99434
462.983	196.87286
463.196	249.22668
463.408	248.31231
463.62	211.6431
463.832	270.20225
464.044	249.34391
464.256	258.06407
464.468	202.13373
464.68	244.23247
464.891	242.73169
465.103	199.66782
465.315	255.69676
465.527	189.00319
465.739	169.63676
465.951	195.9568
466.163	224.45807
466.375	172.83408
466.587	259.23593
466.799	192.5272
467.01	177.86443
467.222	208.19192
467.434	171.96426
467.646	189.00319
467.858	207.13535
468.069	217.72271
468.281	167.61473
468.493	158.63139
468.705	160.8187
468.916	177.62939
469.128	163.82891
469.34	184.11584
469.551	179.88572
469.763	129.8039
469.975	172.55198
470.186	186.86508
470.398	151.66847
470.61	171.14143
470.821	145.71568
471.033	169.58973
471.245	246.36625
471.456	141.15022
471.668	185.50224
471.879	168.5082
472.091	233.20929
472.302	243.05999
472.514	220.96151
472.725	193.81922
472.937	160.60703
473.148	136.0426
473.36	193.16147
473.571	227.39108
473.783	175.4669
473.994	194.40648
474.206	167.00339
474.417	163.6643
474.629	203.75407
474.84	212.44127
475.051	239.75335
475.263	144.3273
475.474	176.00754
475.685	212.53517
475.897	167.33257
476.108	245.85041
476.319	158.27858
476.531	181.88336
476.742	220.84417
476.953	242.54409
477.165	294.51012
477.376	181.08432
477.587	198.11771
477.798	206.45443
478.01	148.04519
478.221	226.78104
478.432	182.63537
478.643	204.10631
478.854	168.39064
479.065	318.02584
479.277	246.31936
479.488	242.12198
479.699	265.65689
479.91	212.72297
480.121	276.7613
480.332	227.93072
480.543	244.88904
480.754	176.59518
480.965	194.00715
481.176	220.46868
481.387	302.3976
481.598	245.10007
481.809	294.67398
482.02	419.05888
482.231	920.64617
482.442	2032.93317
482.653	4110.57807
482.864	6494.57796
483.075	9882.68008
483.286	13862.71087
483.497	18510.72384
483.708	22034.26082
483.919	25214.42307
484.13	27980.8685
484.341	31907.61827
484.551	37484.22002
484.762	42441.49414
484.973	43913.80778
485.184	29911.12725
485.395	9899.46166
485.605	2992.89049
485.816	1274.00832
486.027	636.82627
486.238	450.25512
486.449	505.16177
486.659	369.18059
486.87	331.30796
487.081	344.91124
487.291	298.95733
487.502	287.41658
487.713	250.49268
487.923	282.21823
488.134	242.14543
488.345	349.18726
488.555	270.64737
488.766	218.59112
488.976	309.97881
489.187	272.26382
489.398	266.10208
489.608	293.6206
489.819	233.02162
490.029	207.7693
490.24	309.25353
490.45	285.49658
490.661	298.46583
490.871	256.61089
491.082	206.59532
491.292	215.75109
491.503	274.88743
491.713	268.6794
491.924	249.74247
492.134	244.6311
492.344	242.28613
492.555	270.29596
492.765	286.9483
492.975	268.21081
493.186	295.58688
493.396	299.51904
493.607	193.6078
493.817	315.78038
494.027	246.01454
494.237	233.30312
494.448	234.94514
494.658	278.19003
494.868	200.09056
495.078	279.08003
495.289	304.36329
495.499	246.15523
495.709	207.7693
495.919	223.23784
496.129	238.86213
496.34	194.00715
496.55	188.88572
496.76	274.74689
496.97	267.76565
497.18	231.09798
497.39	208.80236
497.6	267.10961
497.81	301.62533
498.021	272.45123
498.231	283.81061
498.441	247.67927
498.651	230.41764
498.861	197.13123
499.071	246.36625
499.281	301.76575
499.491	244.09178
499.701	259.42342
499.911	273.36483
500.121	248.19508
500.331	271.42047
500.54	346.99091
500.75	251.17255
500.96	251.78207
501.17	225.60784
501.38	244.30282
501.59	262.02477
501.8	226.85143
502.01	161.31258
502.219	236.11795
502.429	276.38653
502.639	326.07066
502.849	271.35019
503.059	235.32044
503.268	249.25013
503.478	233.67845
503.688	276.246
503.898	235.46118
504.107	228.09496
504.317	307.84972
504.527	258.86094
504.736	275.19195
504.946	223.02664
505.156	281.86695
505.365	236.1414
505.575	224.73965
505.785	242.33303
505.994	296.75722
506.204	240.90251
506.413	239.91752
506.623	192.36275
506.832	247.16345
507.042	246.10833
507.251	270.76451
507.461	263.75887
507.67	240.57418
507.88	214.83565
508.089	245.07662
508.299	258.29844
508.508	250.44579
508.718	177.62939
508.927	204.12979
509.137	280.83653
509.346	273.48196
509.555	203.75407
509.765	203.37835
509.974	422.5552
510.184	272.19354
510.393	222.51038
510.602	216.61956
510.812	284.67702
511.021	226.10059
511.23	301.88276
511.439	215.35205
511.649	226.21791
511.858	255.4858
512.067	251.00844
512.276	259.61091
512.486	472.34584
512.695	278.19003
512.904	187.05305
513.113	232.17711
513.322	244.77179
513.531	257.1031
513.741	285.87122
513.95	200.6777
514.159	239.82371
514.368	194.50044
514.577	228.2592
514.786	218.09825
514.995	206.68924
515.204	237.43144
515.413	174.92625
515.622	215.02343
515.831	219.9993
516.04	241.74676
516.249	183.90435
516.458	199.50342
516.667	233.51424
516.876	297.55302
517.085	217.25329
517.294	253.86841
517.503	234.59328
517.712	231.73139
517.921	252.20404
518.13	259.93902
518.339	274.1847
518.547	341.17213
518.756	213.49764
518.965	220.25746
519.174	235.08588
519.383	239.82371
519.591	193.53733
519.8	173.35126
520.009	224.95083
520.218	223.12051
520.426	207.08839
520.635	254.68884
520.844	247.53859
521.053	256.89216
521.261	289.71105
521.47	244.02143
521.679	226.75758
521.887	251.10222
522.096	219.6942
522.304	196.80239
522.513	194.78233
522.722	200.63073
522.93	282.49924
523.139	241.13703
523.347	197.01379
523.556	188.39232
523.764	201.57012
523.973	214.4366
524.182	181.50734
524.39	251.87584
524.598	197.48355
524.807	175.72547
525.015	211.80743
525.224	239.40156
525.432	219.88196
525.641	181.03731
525.849	216.90122
526.057	219.1544
526.266	239.40156
526.474	179.25114
526.683	195.41655
526.891	263.1496
527.099	197.5775
527.308	220.3748
527.516	192.95005
527.724	251.52419
527.932	190.76525
528.141	273.154
528.349	298.09135
528.557	219.36563
528.765	175.13781
528.974	170.43612
529.182	203.82452
529.39	216.90122
529.598	176.47765
529.806	185.59624
530.015	238.15852
530.223	190.50682
530.431	176.59518
530.639	154.72673
530.847	191.49353
531.055	219.60033
531.263	230.95722
531.471	135.35994
531.679	151.40968
531.887	215.98581
532.095	234.38217
532.303	266.8753
532.511	190.38935
532.719	188.81523
532.927	212.01871
533.135	222.22877
533.343	290.69434
533.551	234.92168
533.759	223.02664
533.967	259.70466
534.175	248.52332
534.383	262.58719
534.591	260.10308
534.798	267.8828
535.006	188.62727
535.214	233.49078
535.422	198.16468
535.63	260.17338
535.837	188.9562
536.045	181.64835
536.253	226.12406
536.461	218.49724
536.668	231.21528
536.876	248.73433
537.084	274.48922
537.292	246.31936
537.499	276.90183
537.707	232.4117
537.915	252.18059
538.122	278.47109
538.33	266.21924
538.538	240.19895
538.745	265.98493
538.953	294.04195
539.16	234.24143
539.368	218.4503
539.575	212.93424
539.783	226.42909
539.99	306.35224
540.198	243.90418
540.406	222.2053
540.613	206.17267
540.82	211.10314
541.028	255.18108
541.235	240.12859
541.443	282.45241
541.65	337.68966
541.858	264.04007
542.065	230.04227
542.272	208.28584
542.48	316.03768
542.687	217.6523
542.895	285.40291
543.102	224.52846
543.309	257.47812
543.516	271.7953
543.724	234.82785
543.931	230.22995
544.138	273.76306
544.346	214.95301
544.553	251.1491
544.76	247.91373
544.967	222.72158
545.174	257.17342
545.382	240.45692
545.589	264.97736
545.796	267.71879
546.003	198.58745
546.21	259.54061
546.417	346.52358
546.624	253.0714
546.832	242.37993
547.039	229.08036
547.246	272.47466
547.453	241.09012
547.66	197.1782
547.867	260.12651
548.074	234.96859
548.281	220.28093
548.488	224.85697
548.695	215.56331
548.902	247.7965
549.109	188.5098
549.316	205.72654
549.523	189.77851
549.73	217.55842
549.936	244.678
550.143	199.15113
550.35	179.27464
550.557	186.51263
550.764	188.9797
550.971	251.36009
551.178	194.92327
551.384	258.79063
551.591	279.57186
551.798	267.67193
552.005	207.11187
552.211	257.66562
552.418	225.95981
552.625	183.05837
552.832	234.85131
553.038	256.47026
553.245	244.88904
553.452	270.55366
553.658	197.83586
553.865	216.17359
554.072	233.58462
554.278	237.71289
554.485	323.61535
554.691	300.85304
554.898	219.41257
555.105	274.34868
555.311	211.1501
555.518	284.16186
555.724	254.71228
555.931	192.01037
556.137	184.93829
556.344	248.05441
556.55	241.23083
556.757	248.4061
556.963	229.7842
557.17	245.70972
557.376	250.32857
557.582	328.68943
557.789	233.77228
557.995	217.79313
558.202	229.10382
558.408	222.46344
558.614	208.37975
558.821	243.17724
559.027	254.2669
559.233	260.75928
559.439	311.12518
559.646	245.78007
559.852	279.33766
560.058	261.83729
560.264	259.82184
560.471	255.76708
560.677	292.54377
560.883	304.08249
561.089	293.29287
561.295	230.46456
561.502	250.53957
561.708	237.29071
561.914	257.03279
562.12	257.31405
562.326	260.47805
562.532	266.75815
562.738	293.03537
562.944	228.18881
563.15	268.96054
563.356	204.45854
563.562	249.55491
563.768	282.89734
563.974	202.65037
564.18	274.11443
564.386	229.26805
564.592	224.52846
564.798	230.48802
565.004	300.47859
565.21	198.75186
565.416	259.14218
565.622	278.40083
565.828	286.17562
566.034	299.75308
566.239	264.15723
566.445	313.20725
566.651	299.96371
566.857	331.14431
567.063	305.15889
567.268	342.52761
567.474	374.29355
567.68	320.24774
567.886	382.08971
568.091	407.47153
568.297	347.4816
568.503	388.1805
568.708	407.75136
568.914	443.05882
569.12	442.94236
569.325	394.20007
569.531	428.61452
569.737	346.92081
569.942	365.79482
570.148	449.23051
570.353	513.04082
570.559	490.76983
570.765	436.0705
570.97	475.41727
571.176	561.6195
571.381	424.81593
571.587	332.33661
571.792	370.4414
571.998	402.20097
572.203	403.22717
572.408	522.96234
572.614	579.22599
572.819	519.91884
573.025	481.44289
573.23	472.74142
573.435	433.41452
573.641	484.8158
573.846	416.61122
574.051	460.17347
574.257	507.85807
574.462	516.92151
574.667	486.1416
574.873	469.06466
575.078	540.72961
575.283	502.16303
575.488	565.47102
575.694	599.85896
575.899	475.09152
576.104	521.45224
576.309	559.09023
576.514	566.00463
576.719	712.39165
576.925	802.80976
577.13	686.95264
577.335	632.31184
577.54	558.74215
577.745	499.37324
577.95	522.33508
578.155	469.3672
578.36	427.16972
578.565	470.29805
578.77	596.89234
578.975	661.79489
579.18	557.32659
579.385	605.81457
579.59	705.48506
579.795	556.09662
580	447.3442
580.205	483.42016
580.41	704.6765
580.615	1082.42859
580.82	1132.48214
581.024	934.18949
581.229	887.13334
581.434	822.0621
581.639	639.02539
581.844	521.35931
582.049	481.21026
582.253	584.55938
582.458	477.60431
582.663	393.52352
582.868	387.17713
583.072	415.02596
583.277	515.48083
583.482	605.58285
583.686	613.96988
583.891	576.83727
584.096	602.80214
584.3	681.52037
584.505	548.11227
584.71	626.68529
584.914	626.33794
585.119	612.18608
585.323	569.0901
585.528	423.34764
585.733	471.57794
585.937	517.68829
586.142	395.01659
586.346	555.37718
586.551	520.80171
586.755	539.68475
586.959	713.75432
587.164	660.29129
587.368	524.61175
587.573	629.6955
587.777	935.52059
587.982	3396.64065
588.186	7467.906
588.39	3369.32423
588.595	2152.15892
588.799	4250.89859
589.003	1823.33646
589.208	691.99115
589.412	565.67983
589.616	497.00173
589.82	508.78778
590.025	372.21579
590.229	407.72804
590.433	389.16052
590.637	388.62385
590.842	510.85627
591.046	558.74215
591.25	467.64504
591.454	354.04669
591.658	405.16286
591.862	602.7558
592.067	929.02526
592.271	753.84765
592.475	602.73262
592.679	648.46831
592.883	565.09981
593.087	606.62556
593.291	481.5592
593.495	440.12392
593.699	419.89803
593.903	569.41487
594.107	715.16312
594.311	704.32997
594.515	619.78392
594.719	545.09441
594.923	516.75885
595.127	577.20834
595.33	534.83152
595.534	405.48935
595.738	554.65773
595.942	512.34364
596.146	414.20999
596.35	517.80447
596.553	477.39492
596.757	497.18774
596.961	649.76419
597.165	522.24215
597.369	398.72562
597.572	434.71924
597.776	409.54686
597.98	579.59703
598.183	683.3004
598.387	590.88872
598.591	478.39533
598.794	479.93078
598.998	496.42045
599.202	561.48028
599.405	625.68955
599.609	584.28113
599.812	639.95128
600.016	626.26847
600.22	691.32093
600.423	663.41407
600.627	611.14355
600.83	485.30426
601.034	631.77933
601.237	705.50816
601.441	437.11885
601.644	490.79308
601.847	630.32067
602.051	526.26108
602.254	525.51773
602.458	589.01092
602.661	683.18482
602.864	537.06085
603.068	518.59447
603.271	445.62081
603.475	447.60038
603.678	477.32512
603.881	460.98821
604.084	376.90806
604.288	401.52459
604.491	545.93016
604.694	537.01441
604.897	414.44313
605.101	441.2886
605.304	531.60336
605.507	432.66894
605.71	368.31667
605.913	506.74239
606.116	524.33298
606.32	527.67803
606.523	459.94068
606.726	436.0472
606.929	487.02543
607.132	511.2746
607.335	525.21574
607.538	440.42674
607.741	409.50022
607.944	354.58399
608.147	367.10247
608.35	414.3965
608.553	403.25049
608.756	428.35819
608.959	462.50125
609.162	559.46151
609.365	521.35931
609.568	474.71924
609.771	351.8507
609.973	460.40625
610.176	469.39047
610.379	380.38593
610.582	394.48002
610.785	466.83047
610.988	422.43866
611.19	348.2293
611.393	357.20023
611.596	344.37377
611.799	344.3504
612.001	433.43782
612.204	331.2612
612.407	373.66323
612.609	405.86248
612.812	441.84763
613.015	431.20102
613.217	442.77932
613.42	356.12573
613.623	395.31986
613.825	448.06614
614.028	487.18824
614.23	402.59746
614.433	356.38268
614.636	395.01659
614.838	479.65161
615.041	494.18823
615.243	323.68551
615.446	296.78062
615.648	288.58725
615.85	326.25772
616.053	261.79042
616.255	372.05236
616.458	317.02008
616.66	320.92597
616.863	285.239
617.065	339.25565
617.267	341.96673
617.47	336.87157
617.672	330.139
617.874	313.27742
618.077	298.7935
618.279	299.82329
618.481	372.40256
618.683	250.53957
618.886	266.43012
619.088	418.21971
619.29	366.54206
619.492	292.49695
619.694	300.5254
619.897	321.81466
620.099	267.69536
620.301	194.99374
620.503	190.64778
620.705	292.02875
620.907	274.48922
621.109	241.23083
621.311	302.63162
621.513	301.46152
621.715	337.31568
621.917	338.32074
622.119	355.5651
622.321	327.63727
622.523	329.46098
622.725	255.20452
622.927	264.60245
623.129	280.50866
623.331	276.246
623.533	227.81341
623.735	298.16157
623.937	326.84228
624.139	251.71174
624.341	300.10414
624.542	222.79198
624.744	213.63848
624.946	275.70726
625.148	255.3686
625.35	270.76451
625.551	234.12414
625.753	185.50224
625.955	243.88073
626.156	282.10114
626.358	271.09249
626.56	251.1491
626.762	330.91052
626.963	278.2603
627.165	242.40339
627.366	271.7953
627.568	269.8274
627.77	248.875
627.971	307.24138
628.173	271.32676
628.374	233.04508
628.576	242.75514
628.777	335.18857
628.979	196.70844
629.18	179.06312
629.382	192.48021
629.583	275.49645
629.785	283.90428
629.986	207.58146
630.188	215.82151
630.389	238.79177
630.591	279.92316
630.792	181.27233
630.993	181.55434
631.195	203.75407
631.396	192.45672
631.597	198.98672
631.799	222.58078
632	236.28213
632.201	206.52488
632.402	241.55915
632.604	268.49196
632.805	197.9533
633.006	240.78525
633.207	258.86094
633.409	287.34634
633.61	204.43506
633.811	211.66657
634.012	258.67344
634.213	226.64026
634.414	228.96305
634.615	218.00436
634.816	278.28372
635.017	254.29034
635.219	287.65072
635.42	256.18899
635.621	237.68944
635.822	298.88712
636.023	246.41315
636.224	253.21205
636.425	232.50554
636.626	219.13093
636.826	187.02956
637.027	260.0562
637.228	218.23907
637.429	189.19115
637.63	212.44127
637.831	184.44483
638.032	199.12764
638.233	169.98942
638.433	170.78878
638.634	222.97971
638.835	223.28477
639.036	235.78956
639.237	144.9156
639.437	137.03124
639.638	176.83023
639.839	207.01796
640.039	140.86779
640.24	220.49215
640.441	190.2014
640.641	143.43304
640.842	202.46251
641.043	172.29338
641.243	121.11444
641.444	148.58636
641.645	212.25346
641.845	149.80983
642.046	182.72937
642.246	149.59808
642.447	107.16789
642.647	186.7241
642.848	237.66598
643.048	246.53038
643.249	198.04725
643.449	181.10782
643.65	143.55071
643.85	144.63322
644.05	217.30024
644.251	171.89373
644.451	181.22532
644.651	155.76175
644.852	159.43107
645.052	162.70012
645.252	159.57219
645.453	148.77459
645.653	153.10354
645.853	128.06152
646.054	156.20868
646.254	154.27977
646.454	107.89837
646.654	106.74373
646.854	165.26335
647.055	216.0797
647.255	139.38502
647.455	229.08036
647.655	159.21939
647.855	200.46633
648.055	183.52836
648.255	155.36186
648.455	187.54648
648.655	176.85373
648.856	194.19507
649.056	184.25684
649.256	215.399
649.456	171.28249
649.656	163.82891
649.856	193.16147
650.055	170.48314
650.255	242.80204
650.455	241.06667
650.655	220.35133
650.855	273.08373
651.055	375.50746
651.255	374.15348
651.455	398.42239
651.655	299.58925
651.854	297.62324
652.054	225.02123
652.254	273.27113
652.454	367.38268
652.654	363.69311
652.853	555.88775
653.053	730.356
653.253	1449.937
653.452	4157.87391
653.652	14451.63508
653.852	36473.94128
654.051	63356.21333
654.251	63356.21333
654.451	63356.21333
654.65	63356.21333
654.85	63356.21333
655.049	63356.21333
655.249	63356.21333
655.449	63356.21333
655.648	63356.21333
655.848	63356.21333
656.047	63356.21333
656.247	63356.21333
656.446	63356.21333
656.645	63356.21333
656.845	63356.21333
657.044	63356.21333
657.244	63356.21333
657.443	63356.21333
657.643	63356.21333
657.842	63356.21333
658.041	63356.21333
658.241	63356.21333
658.44	40552.98676
658.639	7153.6267
658.839	2872.45269
659.038	2299.63001
659.237	1942.89679
659.436	1678.20987
659.636	1588.48
659.835	1384.09043
660.034	1280.96939
660.233	1157.77013
660.432	1082.22285
660.631	1026.51832
660.831	998.578
661.03	892.11975
661.229	908.38395
661.428	822.13117
661.627	812.57544
661.826	776.05522
662.025	731.78719
662.224	649.2551
662.423	658.62569
662.622	572.10569
662.821	611.93124
663.02	647.1261
663.219	553.56691
663.418	600.41518
663.617	584.44344
663.816	556.07341
664.015	476.13854
664.214	472.74142
664.412	465.27109
664.611	502.13978
664.81	465.57366
665.009	532.32334
665.208	428.73104
665.406	382.43979
665.605	421.34319
665.804	397.27939
666.003	426.21424
666.201	351.71053
666.4	352.99544
666.599	375.97433
666.798	353.11225
666.996	382.27642
667.195	312.48205
667.394	333.38859
667.592	392.91693
667.791	323.17104
667.989	383.23329
668.188	339.13879
668.386	380.64267
668.585	317.8855
668.783	357.90097
668.982	357.10679
669.18	377.32823
669.379	333.34184
669.577	238.0178
669.776	280.2042
669.974	334.90806
670.173	320.76226
670.371	271.84215
670.57	287.76778
670.768	299.54244
670.966	333.55223
671.165	321.18323
671.363	294.58034
671.561	314.25992
671.76	356.03229
671.958	372.23913
672.156	318.28312
672.354	277.32343
672.553	271.86558
672.751	235.20316
672.949	260.78271
673.147	301.64874
673.345	258.39219
673.543	298.37221
673.742	195.79238
673.94	231.12144
674.138	245.85041
674.336	257.38436
674.534	232.90433
674.732	310.44672
674.93	255.22796
675.128	197.55401
675.326	227.5084
675.524	222.81544
675.722	286.40976
675.92	216.68998
676.118	184.02185
676.316	235.20316
676.514	216.26748
676.712	187.94591
676.91	229.59651
677.108	218.8493
677.305	249.69558
677.503	248.61711
677.701	256.4937
677.899	199.3625
678.097	241.51225
678.295	191.21162
678.492	182.00086
678.69	277.22974
678.888	202.06328
679.085	282.26506
679.283	202.50947
679.481	157.12604
679.679	199.15113
679.876	184.49182
680.074	200.41936
680.271	171.44705
680.469	173.06917
680.667	227.17991
680.864	203.9889
681.062	226.21791
681.259	239.7768
681.457	140.51476
681.654	195.46353
681.852	170.3891
682.049	186.37165
682.247	157.4083
682.444	158.13745
682.642	209.2954
682.839	150.18628
683.037	192.62116
683.234	234.71057
683.431	189.96646
683.629	149.1981
683.826	157.26717
684.023	196.9903
684.221	237.19689
684.418	239.02631
684.615	251.05533
684.813	252.50879
685.01	257.99375
685.207	187.78143
685.404	137.24309
685.601	241.5826
685.799	253.58711
685.996	203.56621
686.193	179.11012
686.39	152.30368
686.587	192.26878
686.784	196.9903
686.981	222.62771
687.179	193.79573
687.376	125.47129
687.573	185.78422
687.77	205.51521
687.967	155.38538
688.164	177.93494
688.361	148.04519
688.558	165.96878
688.755	147.62165
688.952	227.29723
689.148	187.14704
689.345	164.58141
689.542	164.46383
689.739	160.39536
689.936	151.03326
690.133	194.80582
690.33	153.22117
690.526	185.66673
690.723	267.55478
690.92	218.33295
691.117	159.54867
691.314	139.19672
691.51	145.8804
691.707	174.7382
691.904	151.29205
692.1	246.06144
692.297	153.71519
692.494	131.00466
692.69	244.65455
692.887	232.97471
693.084	164.06407
693.28	137.87863
693.477	179.50967
693.673	179.11012
693.87	134.93621
694.066	121.49128
694.263	117.48714
694.459	148.51577
694.656	156.25572
694.852	150.75093
695.049	150.23333
695.245	205.32736
695.442	162.88825
695.638	98.87197
695.834	138.23169
696.031	170.41261
696.227	182.63537
696.423	178.49904
696.62	179.65069
696.816	208.91975
697.012	135.07746
697.209	168.60225
697.405	209.62409
697.601	208.5441
697.797	129.09754
697.994	145.36271
698.19	118.07602
698.386	185.59624
698.582	192.5272
698.778	128.27343
698.974	114.16561
699.17	126.15419
699.367	157.61999
699.563	215.28163
699.759	77.46058
699.955	147.40989
700.151	151.245
700.347	132.81748
700.543	167.96742
700.739	248.75778
700.935	147.43342
701.131	123.54023
701.327	130.62796
701.523	197.90632
701.718	121.60904
701.914	177.1593
702.11	186.65361
702.306	196.33262
702.502	146.35102
702.698	112.18664
702.894	142.82117
703.089	126.50741
703.285	127.66123
703.481	121.70325
703.677	169.26058
703.872	117.51069
704.068	148.46871
704.264	86.80066
704.459	75.95077
704.655	97.29263
704.851	110.20752
705.046	73.75667
705.242	67.95208
705.438	72.81292
705.633	108.74666
705.829	112.6814
706.024	138.46707
706.22	194.75884
706.415	151.62142
706.611	160.23073
706.806	189.96646
707.002	135.90136
707.197	148.56283
707.393	157.61999
707.588	102.52531
707.784	142.46816
707.979	110.25465
708.174	97.88194
708.37	125.80097
708.565	142.75057
708.76	129.42718
708.956	138.23169
709.151	136.65462
709.346	101.98323
709.542	98.14124
709.737	89.51246
709.932	150.9862
710.127	169.04897
710.322	92.93129
710.518	114.44831
710.713	87.46095
710.908	66.81933
711.103	139.31441
711.298	136.72524
711.493	85.99886
711.688	94.2987
711.883	107.23858
712.078	181.74235
712.273	168.93141
712.468	70.00507
712.663	135.9249
712.858	142.86824
713.053	118.59422
713.248	149.92747
713.443	130.08644
713.638	70.28823
713.833	84.06501
714.028	115.46129
714.223	195.83936
714.418	225.09162
714.613	113.38818
714.807	210.51623
715.002	102.14821
715.197	112.328
715.392	59.45531
715.587	68.68362
715.781	134.08874
715.976	88.30987
716.171	168.53171
716.365	134.30061
716.56	134.41832
716.755	79.04107
716.949	127.68477
717.144	135.87782
717.339	113.01123
717.533	131.09884
717.728	151.10384
717.922	71.13768
718.117	63.60962
718.312	149.83336
718.506	114.18917
718.701	199.08067
718.895	208.42671
719.089	154.75025
719.284	138.77306
719.478	90.78573
719.673	69.91068
719.867	131.02821
720.062	108.6524
720.256	97.71694
720.45	100.1448
720.645	47.20106
720.839	127.28447
721.033	130.69859
721.228	82.39047
721.422	120.66695
721.616	92.36544
721.81	124.97676
722.005	129.78035
722.199	153.66814
722.393	94.39301
722.587	71.89273
722.781	148.91576
722.975	156.98491
723.169	133.665
723.364	127.82605
723.558	89.06444
723.752	117.06314
723.946	171.37652
724.14	110.70232
724.334	136.81939
724.528	114.61322
724.722	99.79124
724.916	149.76278
725.11	125.11806
725.304	119.37151
725.498	158.34914
725.692	113.81224
725.885	142.44463
726.079	184.09234
726.273	118.57067
726.467	97.90552
726.661	105.11771
726.855	121.98587
727.048	167.19149
727.242	109.97191
727.436	118.38223
727.63	72.4826
727.823	151.19794
728.017	74.03979
728.211	110.20752
728.405	156.06754
728.598	98.77768
728.792	101.46471
728.986	153.45642
729.179	140.11465
729.373	91.72885
729.566	132.01703
729.76	125.56548
729.953	125.25935
730.147	175.32586
730.34	132.1112
730.534	232.13019
730.727	145.80981
730.921	169.096
731.114	144.72735
731.308	126.13064
731.501	118.47645
731.695	114.89591
731.888	128.67372
732.081	110.39602
732.275	114.49543
732.468	135.83074
732.661	147.31577
732.855	92.43618
733.048	101.29973
733.241	80.85734
733.434	165.35741
733.628	160.48944
733.821	168.3201
734.014	143.22124
734.207	156.98491
734.4	110.11328
734.594	121.75035
734.787	133.42958
734.98	122.83371
735.173	164.76953
735.366	54.28512
735.559	144.70381
735.752	75.92718
735.945	53.50597
736.138	75.31379
736.331	115.55552
736.524	172.48146
736.717	104.24575
736.91	120.90247
737.103	127.0961
737.296	109.40641
737.489	143.38598
737.682	38.2961
737.875	76.23386
738.067	132.79394
738.26	144.84501
738.453	139.73807
738.646	124.90612
738.839	102.94954
739.031	127.19029
739.224	107.85125
739.417	154.3033
739.61	165.12226
739.802	92.78983
739.995	53.5768
740.188	174.19754
740.38	117.15736
740.573	125.07096
740.765	100.87547
740.958	31.2787
741.151	144.9862
741.343	63.09037
741.536	65.37973
741.728	82.24895
741.921	104.50498
742.113	64.97852
742.306	70.21744
742.498	96.86831
742.691	112.91699
742.883	73.89823
743.076	84.25369
743.268	64.03446
743.46	135.31286
743.653	72.83652
743.845	121.6797
744.037	104.71708
744.23	84.0886
744.422	97.26906
744.614	83.80558
744.807	88.71074
744.999	107.99263
745.191	105.23554
745.383	117.58136
745.575	62.71272
745.768	107.54492
745.96	129.12109
746.152	130.60441
746.344	89.30024
746.536	158.04337
746.728	125.84806
746.92	139.7616
747.112	83.33389
747.304	115.69686
747.496	115.95599
747.688	60.63557
747.88	45.14633
748.072	156.20868
748.264	81.51778
748.456	72.57698
748.648	86.84783
748.84	83.35747
749.032	64.76611
749.224	124.76482
749.416	125.21225
749.608	162.98232
749.799	99.39054
749.991	118.05246
750.183	138.39646
750.375	69.69831
750.567	82.6735
750.758	36.00442
750.95	110.89081
751.142	79.20619
751.333	80.26766
751.525	114.73101
751.717	125.51839
751.908	188.53329
752.1	89.3474
752.292	86.80066
752.483	105.07058
752.675	91.96463
752.866	103.20879
753.058	174.4091
753.249	150.18628
753.441	114.8488
753.632	71.82195
753.824	68.99039
754.015	67.6925
754.207	136.63108
754.398	129.73326
754.589	76.56414
754.781	81.51778
754.972	104.34002
755.164	97.19834
755.355	87.97974
755.546	114.2834
755.738	66.27654
755.929	116.45068
756.12	152.28015
756.311	172.3404
756.503	108.55815
756.694	130.2277
756.885	92.31829
757.076	205.79698
757.267	197.9533
757.458	172.0818
757.65	131.28719
757.841	125.47129
758.032	212.95772
758.223	160.25425
758.414	173.68037
758.605	167.33257
758.796	104.74065
758.987	187.9694
759.178	98.40053
759.369	63.18478
759.56	113.60021
759.751	99.29625
759.942	128.13216
760.133	86.06961
760.324	109.94834
760.514	113.50597
760.705	157.76112
760.896	78.61647
761.087	125.00031
761.278	79.7959
761.468	65.00212
761.659	140.84426
761.85	142.98591
762.041	58.3222
762.231	140.65597
762.422	76.18668
762.613	143.69191
762.803	92.38902
762.994	179.86221
763.185	77.57853
763.375	120.47852
763.566	90.07836
763.757	85.76303
763.947	120.59629
764.138	115.90887
764.328	156.09107
764.519	154.46796
764.709	97.26906
764.9	124.15253
765.09	114.61322
765.281	83.782
765.471	64.57729
765.661	73.21402
765.852	85.14987
766.042	101.77111
766.232	39.21744
766.423	70.31182
766.613	102.03037
766.803	66.96093
766.994	118.80621
767.184	113.27038
767.374	165.14577
767.564	160.86573
767.755	120.19589
767.945	65.45053
768.135	92.27114
768.325	154.1151
768.515	107.92194
768.706	103.72727
768.896	137.40786
769.086	115.39062
769.276	105.63616
769.466	84.2301
769.656	98.2591
769.846	111.80968
770.036	136.08968
770.226	112.6814
770.416	94.41658
770.606	125.54193
770.796	172.90461
770.986	129.75681
771.176	95.80749
771.366	108.11045
771.555	119.51284
771.745	60.25789
771.935	120.92602
772.125	90.47921
772.315	90.40847
772.504	135.52472
772.694	62.66551
772.884	152.86829
773.074	54.30873
773.263	86.39976
773.453	102.3132
773.643	157.76112
773.832	135.03038
774.022	139.85575
774.212	105.94251
774.401	52.82124
774.591	29.86082
774.781	50.50719
774.97	107.52135
775.16	61.01325
775.349	57.94449
775.539	65.99334
775.728	46.75234
775.918	105.73042
776.107	175.34937
776.297	256.61089
776.486	487.07195
776.675	566.88623
776.865	435.30169
777.054	161.00685
777.243	147.45695
777.433	132.74686
777.622	140.65597
777.811	120.90247
778.001	142.44463
778.19	74.9835
778.379	68.02288
778.568	115.81465
778.758	98.77768
778.947	107.9455
779.136	115.29639
779.325	116.14444
779.514	41.29625
779.703	141.83273
779.892	62.5239
780.082	76.63491
780.271	36.99672
780.46	97.92909
780.649	104.64638
780.838	92.81341
781.027	53.71847
781.216	46.58702
781.405	56.66967
781.594	110.63163
781.783	139.62039
781.971	134.60665
782.16	78.56929
782.349	181.24883
782.538	60.87162
782.727	143.80957
782.916	73.75667
783.105	122.12718
783.293	87.6496
783.482	155.1972
783.671	128.29698
783.86	96.2554
784.048	47.95678
784.237	17.52206
784.426	70.54779
784.614	87.86183
784.803	94.2987
784.992	-0.71292
785.18	82.81501
785.369	101.48828
785.557	97.26906
785.746	116.94536
785.935	122.92792
786.123	68.84881
786.312	32.5311
786.5	107.23858
786.689	88.09764
786.877	80.05537
787.065	111.03217
787.254	-0.68926
787.442	55.06425
787.631	100.85191
787.819	102.10108
788.007	127.59058
788.196	113.41174
788.384	137.24309
788.572	146.63339
788.761	51.82953
788.949	62.97235
789.137	83.71124
789.325	70.05226
789.513	73.16683
789.702	91.21014
789.89	121.89166
790.078	66.98453
790.266	53.60041
790.454	85.33854
790.642	67.07893
790.83	149.85689
791.018	62.5475
791.207	69.50953
791.395	127.47285
791.583	58.20417
791.771	129.16818
791.959	81.98951
792.146	52.53789
792.334	33.45264
792.522	62.99596
792.71	88.82864
792.898	81.56495
793.086	136.79586
793.274	60.7772
793.462	130.95758
793.65	130.13352
793.837	42.47731
794.025	113.718
794.213	48.00401
794.401	135.43056
794.588	64.22327
794.776	21.77745
794.964	34.53954
795.151	98.98982
795.339	94.25155
795.527	57.42512
795.714	17.02556
795.902	65.52133
796.089	47.60254
796.277	27.00119
796.465	125.51839
796.652	82.60274
796.84	45.66593
797.027	83.00369
797.215	65.73374
797.402	138.01985
797.59	131.00466
797.777	78.758
797.964	43.42213
798.152	42.87886
798.339	140.23233
798.526	44.08348
798.714	33.35812
798.901	76.28105
799.088	109.50066
799.276	67.55091
799.463	73.75667
799.65	56.17389
799.837	90.64426
800.025	16.05616
800.212	93.44997
800.399	74.06339
800.586	56.83493
800.773	41.53246
800.96	39.35918
801.148	101.04046
801.335	114.47187
801.522	134.72435
801.709	32.79102
801.896	98.51839
802.083	72.5062
802.27	41.20176
802.457	77.34263
802.644	55.11147
802.831	75.14865
803.018	40.04426
803.204	60.09266
803.391	67.29132
803.578	54.85177
803.765	69.60392
803.952	114.89591
804.139	49.70431
804.326	84.20652
804.512	68.49484
804.699	127.26093
804.886	65.47413
805.073	49.32648
805.259	73.14324
805.446	201.12391
805.633	94.41658
805.819	129.99226
806.006	110.1604
806.192	91.18656
806.379	24.18854
806.566	45.57146
806.752	91.32803
806.939	54.89899
807.125	28.37196
807.312	75.36098
807.498	102.71386
807.685	108.77022
807.871	48.09848
808.058	107.05007
808.244	98.54196
808.43	105.65973
808.617	79.81949
808.803	98.30624
808.99	59.8566
809.176	86.72992
809.362	63.53881
809.549	81.32908
809.735	66.93733
809.921	45.38252
810.107	81.8244
810.293	62.28786
810.48	104.90561
810.666	89.2295
810.852	85.19704
811.038	73.78027
811.224	59.07761
811.41	75.00709
811.597	128.57953
811.783	13.07682
811.969	54.42678
812.155	30.12077
812.341	62.68912
812.527	56.97657
812.713	88.78148
812.899	54.75733
813.085	60.47034
813.271	86.3526
813.456	102.3839
813.642	45.8785
813.828	69.10838
814.014	134.18291
814.2	81.44702
814.386	64.6481
814.572	19.55528
814.757	82.41405
814.943	138.77306
815.129	92.81341
815.315	84.39519
815.5	74.62961
815.686	117.34581
815.872	18.32591
816.057	51.0503
816.243	143.52718
816.429	41.65057
816.614	67.97568
816.8	46.94128
816.985	65.19092
817.171	69.15558
817.356	80.59788
817.542	77.62571
817.727	105.98964
817.913	12.53293
818.098	68.14087
818.284	39.8789
818.469	58.79433
818.655	59.92742
818.84	103.84511
819.025	41.81592
819.211	105.04701
819.396	133.7827
819.581	38.62684
819.767	29.97898
819.952	85.78662
820.137	124.95321
820.322	103.11451
820.508	185.64323
820.693	86.80066
820.878	69.34435
821.063	88.89938
821.248	113.62377
821.433	13.19505
821.618	93.33209
821.804	45.19357
821.989	37.20935
822.174	102.33676
822.359	148.5393
822.544	22.81756
822.729	101.18188
822.914	21.89565
823.099	48.24017
823.284	58.88876
823.469	56.45719
823.653	91.72885
823.838	76.94159
824.023	80.50353
824.208	43.61109
824.393	104.10435
824.578	58.34581
824.762	3.21422
824.947	66.32374
825.132	69.41515
825.317	61.8866
825.501	71.42083
825.686	72.81292
825.871	58.86515
826.056	69.48594
826.24	88.9937
826.425	124.41158
826.609	25.03946
826.794	10.12079
826.979	61.69777
827.163	62.38228
827.348	38.41422
827.532	43.989
827.717	64.43569
827.901	61.41452
828.086	83.26313
828.27	47.41361
828.455	85.29137
828.639	102.05394
828.823	80.88093
829.008	23.17213
829.192	53.45874
829.376	89.79541
829.561	31.5859
829.745	40.20962
829.929	30.54614
830.114	70.76015
830.298	155.1972
830.482	47.05936
830.666	107.26215
830.85	28.63193
831.035	59.10122
831.219	11.32689
831.403	13.66798
831.587	24.11763
831.771	123.84638
831.955	61.81579
832.139	54.71011
832.323	62.19345
832.507	6.62042
832.691	36.05168
832.875	18.2077
833.059	17.73485
833.243	6.90425
833.427	39.35918
833.611	60.68278
833.795	6.80964
833.979	79.11184
834.163	42.43007
834.346	115.3435
834.53	58.3222
834.714	100.85191
834.898	57.07101
835.082	53.88374
835.265	93.59143
835.449	34.51591
835.633	24.85037
835.816	68.16447
836	8.29971
836.184	69.41515
836.367	104.71708
836.551	89.77183
836.735	118.2409
836.918	9.45859
837.102	54.85177
837.285	51.5934
837.469	64.88411
837.652	105.04701
837.836	29.64813
838.019	48.59441
838.203	71.51521
838.386	39.35918
838.569	10.83027
838.753	146.42161
838.936	26.10307
839.12	41.10727
839.303	64.7425
839.486	101.48828
839.669	33.83069
839.853	45.16995
840.036	44.15434
840.219	50.95585
840.402	7.54286
840.586	55.51284
840.769	69.60392
840.952	10.80662
841.135	98.21196
841.318	51.12114
841.501	32.08213
841.684	25.20491
841.868	98.28267
842.051	69.32076
842.234	85.29137
842.417	21.11555
842.6	83.89992
842.783	84.98479
842.966	67.17332
843.149	173.89194
843.331	71.89273
843.514	215.0469
843.697	246.34281
843.88	274.11443
844.063	166.76825
844.246	124.41158
844.429	64.57729
844.611	72.74214
844.794	92.97844
844.977	74.25213
845.16	97.59907
845.342	93.04917
845.525	59.73858
845.708	7.3773
845.89	50.20021
846.073	29.01005
846.256	67.95208
846.438	49.13756
846.621	140.49122
846.803	59.40809
846.986	4.87007
847.168	46.84681
847.351	105.4712
847.533	80.1969
847.716	101.18188
847.898	110.91437
848.081	-6.67572
848.263	58.15695
848.446	30.94787
848.628	87.03648
848.81	22.95938
848.993	39.66629
849.175	12.20187
849.357	38.76859
849.539	48.92502
849.722	35.9808
849.904	21.87201
850.086	86.72992
850.268	126.38967
850.451	150.06864
850.633	80.88093
850.815	37.49286
850.997	130.32188
851.179	40.23324
851.361	71.09049
851.543	30.54614
851.725	80.14972
851.907	51.02669
852.089	94.27513
852.271	35.67365
852.453	118.42934
852.635	81.16398
852.817	29.67176
852.999	56.88214
853.181	44.20158
853.363	46.94128
853.545	58.10974
853.727	59.71497
853.908	52.56151
854.09	84.63103
854.272	135.97198
854.454	53.01013
854.636	99.76767
854.817	46.82319
854.999	78.28622
855.181	62.59471
855.362	63.60962
855.544	38.50872
855.726	68.04648
855.907	62.24066
856.089	34.98846
856.27	67.45651
856.452	36.38245
856.634	85.50362
856.815	65.47413
856.997	114.87235
857.178	28.15926
857.36	17.68756
857.541	13.50246
857.722	39.00483
857.904	73.40277
858.085	56.50441
858.267	90.9272
858.448	41.57971
858.629	69.15558
858.811	17.90035
858.992	76.28105
859.173	73.26121
859.354	42.78438
859.536	118.42934
859.717	3.00132
859.898	47.43723
860.079	55.91419
860.26	67.00813
860.441	90.88004
860.623	57.18905
860.804	43.82367
860.985	82.08385
861.166	41.43798
861.347	2.57551
861.528	13.5734
861.709	100.68692
861.89	60.80081
862.071	109.73628
862.252	59.45531
862.433	23.19576
862.614	163.54672
862.794	20.61911
862.975	68.80161
863.156	156.56151
863.337	53.90735
863.518	99.24911
863.699	56.03224
863.879	87.88541
864.06	54.78094
864.241	56.95297
864.422	64.10526
864.602	35.81541
864.783	112.51648
864.964	32.88554
865.144	56.05584
865.325	34.91758
865.506	75.47893
865.686	34.49228
865.867	83.73483
866.047	63.3736
866.228	82.46123
866.408	31.98761
866.589	55.37118
866.769	93.4264
866.95	44.67396
867.13	29.03368
867.31	51.92398
867.491	60.23429
867.671	-0.47633
867.852	28.98642
868.032	84.20652
868.212	71.27926
868.393	101.44114
868.573	52.13649
868.753	42.28835
868.933	62.83074
869.113	58.74712
869.294	64.19967
869.474	72.71855
869.654	37.32748
869.834	37.13847
870.014	59.45531
870.194	0.61196
870.374	75.59689
870.555	37.1621
870.735	49.58624
870.915	44.74482
871.095	56.38637
871.275	66.77213
871.455	91.23372
871.634	19.48435
871.814	100.1448
871.994	56.66967
872.174	77.15391
872.354	105.94251
872.534	33.94884
872.714	49.77515
872.894	21.11555
873.073	79.56002
873.253	76.58773
873.433	19.41343
873.613	16.52904
873.792	70.28823
873.972	49.72792
874.152	21.3283
874.331	73.00168
874.511	119.96035
874.691	42.17024
874.87	23.92853
875.05	42.2411
875.229	27.143
875.409	67.38571
875.588	22.43934
875.768	74.51165
875.947	132.53497
876.127	95.54818
876.306	68.32965
876.486	66.08774
876.665	68.61283
876.844	65.33253
877.024	112.4458
877.203	70.50059
877.382	40.54034
877.562	12.20187
877.741	28.75009
877.92	74.27572
878.1	83.16879
878.279	35.22474
878.458	30.16803
878.637	63.70403
878.816	91.30445
878.996	69.7455
879.175	57.30709
879.354	36.66596
879.533	78.23904
879.712	53.22263
879.891	49.96407
880.07	88.85222
880.249	73.14324
880.428	57.44873
880.607	77.08313
880.786	2.93035
880.965	85.83378
881.144	86.28185
881.323	11.91809
881.502	53.7893
881.68	36.24069
881.859	27.28481
882.038	75.97436
882.217	64.6953
882.396	-4.00176
882.574	32.57836
882.753	60.06905
882.932	45.33528
883.111	92.03536
883.289	52.46706
883.468	54.6865
883.647	53.08096
883.825	79.06466
884.004	74.03979
884.182	41.65057
884.361	57.21265
884.539	15.46505
884.718	99.13125
884.896	3.78195
885.075	51.82953
885.253	94.36943
885.432	56.1975
885.61	7.70842
885.789	44.01262
885.967	27.0721
886.145	91.98821
886.324	53.86013
886.502	65.33253
886.68	81.4706
886.859	42.87886
887.037	90.29057
887.215	63.16117
887.393	110.58451
887.572	13.07682
887.75	80.05537
887.928	75.36098
888.106	64.50649
888.284	103.16165
888.462	75.66767
888.64	41.43798
888.819	52.1601
888.997	91.35161
889.175	37.2566
889.353	19.74441
889.531	49.79877
889.709	48.90141
889.887	40.75294
890.065	93.26136
890.242	82.3433
890.42	108.69953
890.598	34.09061
890.776	89.04086
890.954	33.52352
891.132	26.67031
891.309	18.30227
891.487	70.68936
891.665	33.54715
891.843	71.82195
892.02	32.01124
892.198	69.86349
892.376	55.1823
892.553	90.21984
892.731	122.33914
892.909	77.83802
893.086	96.67973
893.264	45.85488
893.441	54.59206
893.619	60.49394
893.797	50.81417
893.974	74.88913
894.151	85.36212
894.329	23.90489
894.506	1.79484
894.684	53.24624
894.861	79.13543
895.039	39.35918
895.216	32.5311
895.393	56.22111
895.571	-16.16694
895.748	28.60829
895.925	129.87453
896.102	81.58854
896.28	35.46101
896.457	28.32469
896.634	30.73519
896.811	12.7694
896.988	31.16054
897.166	42.05213
897.343	31.75131
897.52	71.09049
897.697	19.2243
897.874	93.44997
898.051	87.39021
898.228	52.79762
898.405	10.16809
898.582	18.42048
898.759	31.25507
898.936	93.21421
899.113	77.79084
899.29	84.11218
899.467	85.85736
899.643	87.15439
899.82	89.53604
899.997	92.03536
900.174	-4.38036
900.351	82.46123
900.527	53.55319
900.704	56.43358
900.881	116.45068
901.058	37.58736
901.234	65.49773
901.411	96.11396
901.588	42.09938
901.764	81.51778
901.941	88.85222
902.117	54.49761
902.294	42.97335
902.471	110.98505
902.647	34.49228
902.824	31.30233
903	63.13757
903.176	53.7893
903.353	90.10194
903.529	41.88679
903.706	75.87999
903.882	38.67409
904.058	17.68756
904.235	-2.77136
904.411	1.70021
904.587	56.90575
904.764	62.5711
904.94	51.0503
905.116	41.15451
905.292	69.91068
905.469	64.43569
905.645	34.94121
905.821	90.83289
905.997	30.73519
906.173	23.59761
906.349	44.50863
906.525	50.34189
906.702	57.09461
906.878	25.08673
907.054	33.12183
907.23	52.67956
907.406	46.46893
907.582	85.73945
907.757	51.73507
907.933	36.94947
908.109	71.77476
908.285	67.6925
908.461	80.85734
908.637	0.0205
908.813	42.83162
908.988	88.07406
909.164	67.6925
909.34	47.50808
909.516	22.1084
909.691	14.04632
909.867	80.97528
910.043	66.53614
910.219	75.14865
910.394	86.2111
910.57	81.09322
910.745	117.20447
910.921	77.81443
911.097	33.66529
911.272	-1.32807
911.448	80.55071
911.623	18.34955
911.799	12.13092
911.974	7.09347
912.149	25.67763
912.325	50.95585
912.5	59.62055
912.676	43.35127
912.851	24.25945
913.026	75.17224
913.202	19.05881
913.377	29.27001
913.552	15.6542
913.727	134.60665
913.903	53.03374
914.078	34.39777
914.253	67.83409
914.428	60.65918
914.603	-13.37365
914.779	21.4465
914.954	39.7844
915.129	86.11677
915.304	56.92936
915.479	49.86961
915.654	42.94973
915.829	74.86554
916.004	-6.06045
916.179	76.30464
916.354	11.39783
916.529	86.56484
916.704	34.49228
916.879	80.69223
917.053	97.03333
917.228	22.13204
917.403	71.84554
917.578	103.82154
917.753	58.98318
917.927	6.07641
918.102	37.37473
918.277	28.46649
918.452	49.25563
918.626	38.03623
918.801	81.1168
918.976	54.99342
919.15	19.43707
919.325	89.48888
919.499	54.40317
919.674	73.2848
919.849	55.1823
920.023	87.67318
920.198	57.73202
920.372	45.71317
920.547	68.49484
920.721	5.79257
920.895	71.89273
921.07	46.16191
921.244	69.7691
921.419	98.51839
921.593	31.2787
921.767	79.98461
921.942	62.42948
922.116	-1.13879
922.29	41.08365
922.464	47.69701
922.639	23.2194
922.813	31.01876
922.987	97.03333
923.161	17.35656
923.335	44.88653
923.509	56.88214
923.683	58.10974
923.858	59.833
924.032	105.70686
924.206	87.79109
924.38	-6.27343
924.554	22.06112
924.728	36.02805
924.902	129.87453
925.075	55.56005
925.249	44.79205
925.423	99.15482
925.597	75.78563
925.771	57.56677
925.945	47.46084
926.119	122.24494
926.292	73.99261
926.466	43.20955
926.64	51.47533
926.814	67.97568
926.987	3.80561
927.161	13.24234
927.335	12.43834
927.508	94.48731
927.682	-19.83653
927.856	23.59761
928.029	84.89045
928.203	81.1168
928.376	77.27186
928.55	17.97128
928.723	-7.83531
928.897	63.63322
929.07	45.85488
929.244	82.22537
929.417	-27.31935
929.59	52.82124
929.764	36.54783
929.937	77.76725
930.111	104.03365
930.284	8.20511
930.457	0.25709
930.63	30.0735
930.804	53.24624
930.977	51.49895
931.15	59.66776
931.323	96.91546
931.497	37.96536
931.67	50.83778
931.843	72.9073
932.016	3.78195
932.189	46.51617
932.362	77.20109
932.535	89.96047
932.708	46.61064
932.881	22.17932
933.054	76.94159
933.227	78.35699
933.4	26.64667
933.573	41.65057
933.746	23.55033
933.919	67.5981
934.092	43.49299
934.264	43.989
934.437	40.04426
934.61	33.71255
934.783	33.83069
934.956	21.51742
935.128	51.7823
935.301	84.34802
935.474	22.34479
935.646	12.58023
935.819	41.83954
935.992	53.43513
936.164	25.25218
936.337	35.24836
936.51	25.29945
936.682	45.90211
936.855	7.80303
937.027	107.73343
937.2	70.24103
937.372	31.25507
937.545	43.96538
937.717	46.96489
937.889	32.50747
938.062	76.70568
938.234	73.54433
938.406	21.4465
938.579	70.99611
938.751	77.57853
938.923	75.99795
939.096	105.87182
939.268	77.13031
939.44	65.82814
939.612	57.07101
939.784	74.70039
939.957	60.63557
940.129	55.86697
940.301	48.35825
940.473	66.46534
940.645	83.68766
940.817	82.46123
940.989	49.72792
941.161	34.18512
941.333	59.59694
941.505	19.29522
941.677	43.25679
941.849	44.03624
942.021	53.41152
942.193	17.49842
942.365	7.35365
942.537	65.80454
942.708	78.30981
942.88	75.62049
943.052	6.66773
943.224	20.0281
943.395	41.20176
943.567	51.47533
943.739	59.99824
943.911	29.03368
944.082	54.49761
944.254	116.07377
944.425	10.57013
944.597	26.19761
944.769	65.04932
944.94	64.6953
945.112	115.1786
945.283	119.96035
945.455	19.08245
945.626	64.81331
945.798	32.27117
945.969	59.54973
946.14	65.19092
946.312	73.63871
946.483	32.6965
946.655	26.55213
946.826	43.20955
946.997	96.18468
947.168	-20.42844
947.34	10.40458
947.511	91.94105
947.682	40.54034
947.853	31.84583
948.025	86.65917
948.196	14.21184
948.367	58.13334
948.538	17.75849
948.709	44.6031
948.88	37.65823
949.051	65.68654
949.222	34.51591
949.393	66.51254
949.564	34.23238
949.735	28.63193
949.906	31.60953
950.077	21.42286
950.248	66.32374
950.419	19.48435
950.59	6.0291
950.761	12.05998
950.931	104.34002
951.102	76.77646
951.273	70.76015
951.444	56.12667
951.614	77.8852
951.785	45.12271
951.956	47.88593
952.126	93.30852
952.297	142.53876
952.468	40.13875
952.638	32.0585
952.809	43.13869
952.98	32.67287
953.15	32.27117
953.321	-2.67671
953.491	8.70178
953.662	48.21656
953.832	28.58466
954.002	23.0303
954.173	-38.23959
954.343	64.12886
954.514	-1.47003
954.684	20.64275
954.854	61.15488
955.025	46.04382
955.195	47.95678
955.365	37.39835
955.535	13.54975
955.706	97.38692
955.876	61.69777
956.046	87.74393
956.216	51.47533
956.386	62.24066
956.557	55.34757
956.727	21.11555
956.897	45.83126
957.067	27.54478
957.237	34.8467
957.407	66.84293
957.577	56.15028
957.747	28.82099
957.917	39.73716
958.087	11.01946
958.257	59.24285
958.427	36.19344
958.596	-1.02049
958.766	69.22637
958.936	5.3668
959.106	76.09232
959.276	26.48123
959.445	15.98523
959.615	58.27499
959.785	66.30014
959.955	121.27931
960.124	49.51539
960.294	91.70528
960.464	28.67919
960.633	10.61742
960.803	35.3665
960.972	55.46562
961.142	-4.38036
961.311	36.87859
961.481	51.7823
961.65	61.83939
961.82	57.92088
961.989	111.8568
962.159	56.57523
962.328	99.9091
962.498	89.93689
962.667	8.89098
962.836	33.75981
963.006	42.71352
963.175	31.30233
963.344	59.12482
963.513	14.59018
963.683	-4.12007
963.852	22.84119
964.021	34.89395
964.19	16.55268
964.359	17.52206
964.528	39.57179
964.698	-4.26205
964.867	2.93035
965.036	67.45651
965.205	102.97311
965.374	71.82195
965.543	64.6953
965.712	58.22777
965.881	45.80764
966.05	25.86671
966.219	46.63425
966.387	49.49178
966.556	49.70431
966.725	33.99609
966.894	72.08149
967.063	54.42678
967.232	49.39732
967.4	3.21422
967.569	50.29466
967.738	104.43428
967.906	22.1084
968.075	79.58361
968.244	-1.44637
968.412	6.52581
968.581	72.69495
968.75	26.57577
968.918	40.80018
969.087	19.08245
969.255	60.51755
969.424	57.87367
969.592	63.25558
969.761	35.20111
969.929	56.38637
970.098	67.76329
970.266	-11.12504
970.434	31.72768
970.603	52.58512
970.771	87.13081
970.939	37.37473
971.108	86.30543
971.276	27.42661
971.444	69.83989
971.612	-37.67096
971.781	34.06698
971.949	170.74176
972.117	41.06003
972.285	88.52209
972.453	-7.05436
972.621	19.31887
972.789	38.95758
972.957	96.11396
973.125	24.66127
973.293	26.5285
973.461	44.76843
973.629	92.01178
973.797	23.0303
973.965	57.02379
974.133	25.60672
974.301	25.03946
974.469	9.34034
974.637	30.38072
974.805	114.21273
974.972	60.47034
975.14	90.78573
975.308	32.86191
975.476	9.67144
975.643	85.90453
975.811	23.07757
975.979	106.41382
976.146	43.37489
976.314	68.9196
976.482	61.41452
976.649	20.16994
976.817	63.98725
976.984	66.53614
977.152	14.87392
977.319	94.53446
977.487	97.12762
977.654	64.7425
977.822	21.96656
977.989	53.43513
978.156	25.89035
978.324	51.00307
978.491	27.2139
978.658	-15.12534
978.826	44.86291
978.993	52.91568
979.16	46.35085
979.328	32.55473
979.495	57.11822
979.662	10.47553
979.829	25.18127
979.996	82.24895
980.163	85.2442
980.33	18.25498
980.498	25.65399
980.665	61.13127
980.832	-3.76514
980.999	54.56844
981.166	25.22855
981.333	80.12613
981.5	55.37118
981.667	142.13868
981.833	-10.36766
982	95.94894
982.167	8.77273
982.334	30.68792
982.501	40.87105
982.668	68.28246
982.834	14.35372
983.001	90.00762
983.168	86.77708
983.335	16.17438
983.501	24.18854
983.668	34.16149
983.835	36.61871
984.001	64.50649
984.168	17.52206
984.334	51.7823
984.501	40.35135
984.668	41.17814
984.834	16.22167
985.001	-18.65273
985.167	84.0886
985.334	-1.20977
985.5	29.6245
985.666	2.55185
985.833	2.10238
985.999	30.73519
986.165	48.12209
986.332	107.05007
986.498	30.47524
986.664	43.04421
986.831	38.43785
986.997	38.41422
987.163	19.90989
987.329	42.38283
987.495	-16.07224
987.662	69.39155
987.828	9.19844
987.994	68.87241
988.16	81.58854
988.326	25.63036
988.492	30.19166
988.658	58.72351
988.824	53.81291
988.99	23.24304
989.156	14.87392
989.322	115.69686
989.488	55.37118
989.654	13.26599
989.82	38.53235
989.985	82.3433
990.151	77.20109
990.317	113.67088
990.483	-9.79964
990.648	72.5062
990.814	71.44443
990.98	49.23202
991.146	39.40643
991.311	69.72191
991.477	70.54779
991.643	0.23343
991.808	12.79305
991.974	-4.87728
992.139	35.86267
992.305	41.55609
992.47	38.34335
992.636	56.69328
992.801	74.70039
992.967	44.53225
993.132	29.38817
993.298	140.18526
993.463	31.16054
993.628	31.01876
993.794	22.22659
993.959	56.52802
994.124	-4.59332
994.29	69.39155
994.455	87.60244
994.62	42.59542
994.785	107.54492
994.95	21.80109
995.116	71.11409
995.281	39.38281
995.446	29.97898
995.611	-21.636
995.776	18.30227
995.941	80.95169
996.106	22.13204
996.271	33.87795
996.436	52.58512
996.601	82.13102
996.766	45.02824
996.931	58.44023
997.096	44.27244
997.261	9.24574
997.425	90.10194
997.59	30.33345
997.755	48.45271
997.92	37.51648
998.085	40.77656
998.249	24.92127
998.414	2.97766
998.579	-4.99559
998.744	33.23998
998.908	69.32076
999.073	103.4209
999.237	74.81835
999.402	15.32318
999.567	47.79147
999.731	26.85939
999.896	-28.78775
1000.06	91.8939
1000.225	35.39013
1000.389	64.41208
1000.553	57.77924
1000.718	76.51696
1000.882	-22.84361
1001.047	40.68207
1001.211	18.70418
1001.375	112.06884
1001.54	15.37047
1001.704	22.69936
1001.868	116.07377
1002.032	118.4529
1002.197	57.07101
1002.361	21.02099
1002.525	52.89207
1002.689	72.45901
1002.853	13.19505
1003.017	7.23539
1003.181	7.02252
1003.345	38.81584
1003.509	95.5246
1003.673	60.91883
1003.837	73.99261
1004.001	46.35085
1004.165	48.94864
1004.329	74.11057
1004.493	37.82361
1004.657	57.87367
1004.821	13.50246
1004.985	58.79433
1005.149	28.91552
1005.312	64.76611
1005.476	41.29625
1005.64	138.44353
1005.804	24.44854
1005.967	66.55974
1006.131	65.45053
1006.295	72.97808
1006.458	47.05936
1006.622	49.32648
1006.785	46.5634
1006.949	102.54888
1007.113	46.37446
1007.276	60.42313
1007.44	67.5745
1007.603	8.08685
1007.767	41.29625
1007.93	27.94656
1008.093	33.23998
1008.257	38.41422
1008.42	-12.7819
1008.584	38.01261
1008.747	43.70557
1008.91	55.06425
1009.073	8.1578
1009.237	41.50884
1009.4	61.76858
1009.563	-14.79393
1009.726	42.14662
1009.889	125.54193
1010.053	76.98877
1010.216	32.90917
1010.379	67.22052
1010.542	114.42475
1010.705	53.95457
1010.868	75.62049
1011.031	67.7397
1011.194	44.74482
1011.357	54.96981
1011.52	23.95217
1011.683	11.0904
1011.846	46.91766
1012.009	64.29408
1012.171	66.98453
1012.334	55.60727
1012.497	91.35161
1012.66	32.9328
1012.823	67.33852
1012.985	106.6966
1013.148	68.47124
1013.311	53.76569
1013.473	39.38281
1013.636	20.97371
1013.799	89.04086
1013.961	61.53254
1014.124	52.91568
1014.286	59.14843
1014.449	3.28519
1014.612	90.62068
1014.774	23.00666
1014.936	27.82839
1015.099	-7.33834
1015.261	-15.95388
1015.424	49.11394
1015.586	59.38449
1015.748	39.85527
1015.911	11.11405
1016.073	169.35462
1016.235	73.63871
1016.398	57.73202
1016.56	70.85453
1016.722	18.49141
1016.884	6.57312
1017.047	73.23761
1017.209	57.70841
1017.371	19.67348
1017.533	0.8722
1017.695	84.86687
1017.857	67.48011
1018.019	88.33345
1018.181	83.80558
1018.343	46.13829
1018.505	52.37261
1018.667	-21.13876
1018.829	15.67785
1018.991	57.59038
1019.153	65.80454
1019.315	-27.43777
1019.477	33.21635
1019.638	28.37196
1019.8	10.85391
1019.962	61.46173
1020.124	6.40755
1020.285	54.02541
1020.447	38.01261
1020.609	30.0735
1020.77	31.515
1020.932	146.1863
1021.094	18.13677
1021.255	12.10728
1021.417	116.61557
1021.578	20.92643
1021.74	46.75234
1021.901	32.31843
1022.063	21.18647
1022.224	65.45053
1022.386	60.98964
1022.547	63.56242
1022.709	66.34734
1022.87	84.15935
1023.031	61.13127
1023.193	19.83897
1023.354	63.4444
1023.515	55.13508
1023.676	71.39723
1023.838	55.56005
1023.999	65.12012
1024.16	67.17332
1024.321	73.40277
1024.482	68.56563
1024.644	111.80968
1024.805	58.6763
1024.966	31.5859
1025.127	11.11405
1025.288	47.27191
1025.449	116.49779
1025.61	45.05186
1025.771	90.50278
1025.932	83.89992
1026.093	73.56793
1026.253	49.3737
1026.414	-21.39922
1026.575	28.46649
1026.736	0.30441
1026.897	21.5647
1027.058	72.01071
1027.218	56.83493
1027.379	-3.59951
1027.54	51.9712
1027.7	50.31828
1027.861	57.61398
1028.022	49.39732
1028.182	31.5859
1028.343	45.3589
1028.504	14.02268
1028.664	58.72351
1028.825	47.10659
1028.985	66.63054
1029.146	7.61382
1029.306	30.9006
1029.466	92.88414
1029.627	84.70178
1029.787	38.1071
1029.948	33.14546
1030.108	57.54316
1030.268	97.19834
1030.429	9.08019
1030.589	53.81291
1030.749	23.31395
1030.909	51.64062
1031.07	70.31182
1031.23	48.4291
1031.39	-0.14511
1031.55	45.78402
1031.71	-12.47419
1031.87	34.87033
1032.03	67.95208
1032.19	31.8222
1032.35	36.94947
1032.51	85.6687
1032.67	16.24531
1032.83	26.45759
1032.99	15.18131
1033.15	67.12612
1033.31	74.37009
1033.47	7.35365
1033.63	54.09624
1033.79	53.01013
1033.949	11.98904
1034.109	63.27919
1034.269	24.59036
1034.429	95.5246
1034.588	74.65321
1034.748	42.73714
1034.908	53.45874
1035.067	65.59214
1035.227	38.86308
1035.387	57.21265
1035.546	104.43428
1035.706	3.26153
1035.865	96.06681
1036.025	13.85715
1036.184	33.61804
1036.344	58.60548
1036.503	56.29193
1036.662	18.0422
1036.822	53.67124
1036.981	18.39684
1037.14	58.13334
1037.3	17.40385
1037.459	31.01876
1037.618	89.77183
1037.778	77.10672
1037.937	69.98147
1038.096	50.93223
1038.255	58.29859
1038.414	33.68892
1038.573	112.61072
1038.733	63.60962
1038.892	78.5457
1039.051	109.92478
1039.21	108.84091
1039.369	23.92853
1039.528	69.58033
1039.687	49.68069
1039.846	81.6593
1040.005	38.24885
1040.164	66.18214
1040.322	32.41295
1040.481	71.39723
1040.64	32.34206
1040.799	22.69936
1040.958	102.71386
1041.116	49.06671
1041.275	19.15338
1041.434	52.11287
1041.593	0.20977
1041.751	33.66529
1041.91	82.55557
1042.069	12.69846
1042.227	59.88021
1042.386	103.68014
1042.544	30.04987
1042.703	70.52419
1042.861	48.92502
1043.02	4.11312
1043.178	68.40045
1043.337	114.73101
1043.495	63.89285
1043.653	12.79305
1043.812	20.35906
1043.97	38.17798
1044.129	18.46776
1044.287	40.20962
1044.445	66.37094
1044.603	-9.56296
1044.762	-9.13696
1044.92	104.81135
1045.078	64.78971
1045.236	47.22468
1045.394	48.92502
1045.552	105.11771
