Data from deut_5ms_800_SR4014911__0__14-49-12-682.txt Node

Date: Thu Jul 10 14:49:12 EDT 2025
User: cryst
Spectrometer: SR401491
Trigger mode: 0
Integration Time (sec): 5.000000E-3
Scans to average: 800
Electric dark correction enabled: true
Nonlinearity correction enabled: true
Boxcar width: 0
XAxis mode: Wavelengths
Number of Pixels in Spectrum: 3648
>>>>>Begin Spectral Data<<<<<
344.912	-15.96015
345.129	-2.60342
345.347	-11.64144
345.565	0.19499
345.783	3.59975
346.001	6.7171
346.219	-1.90277
346.437	7.46783
346.654	1.49682
346.872	7.21079
347.09	-3.266
347.308	11.77183
347.526	-6.48114
347.743	4.07581
347.961	-0.6947
348.179	8.62515
348.397	-1.35043
348.614	18.47462
348.832	11.36254
349.05	23.24576
349.268	11.24696
349.485	21.037
349.703	12.60943
349.921	22.19509
350.138	11.67529
350.356	24.02048
350.574	8.24165
350.791	19.57845
351.009	10.99947
351.227	17.13148
351.444	11.67529
351.662	18.32101
351.879	11.00763
352.097	21.70169
352.314	11.77591
352.532	22.99703
352.75	15.50004
352.967	22.9345
353.185	10.49362
353.402	23.31508
353.62	13.08261
353.837	20.96904
354.055	13.68631
354.272	23.23624
354.49	16.75354
354.707	24.62529
354.925	13.50955
355.142	24.01232
355.359	17.07846
355.577	24.09659
355.794	16.64478
356.012	24.43909
356.229	12.82971
356.446	21.79412
356.664	12.93848
356.881	22.74422
357.099	10.94508
357.316	20.40221
357.533	15.29203
357.751	18.87972
357.968	18.89196
358.185	20.69854
358.402	14.7006
358.62	20.16297
358.837	17.48902
359.054	22.05781
359.272	10.31956
359.489	21.32381
359.706	9.72667
359.923	22.83392
360.141	18.26255
360.358	25.10505
360.575	14.39604
360.792	19.76604
361.009	8.87673
361.226	22.44791
361.444	19.64641
361.661	22.67082
361.878	17.87511
362.095	19.29842
362.312	14.49938
362.529	24.42006
362.746	12.96296
362.963	18.07087
363.181	12.70869
363.398	22.18694
363.615	15.4239
363.832	21.32789
364.049	11.79903
364.266	24.38065
364.483	13.9596
364.7	18.89876
364.917	14.80257
365.134	23.77583
365.351	15.4307
365.568	25.74653
365.785	13.32192
366.002	19.34192
366.219	12.34428
366.436	25.48831
366.652	18.52628
366.869	22.03878
367.086	15.71349
367.303	18.77777
367.52	13.15739
367.737	26.45866
367.954	14.61087
368.171	22.08771
368.387	20.98399
368.604	20.5327
368.821	14.79441
369.038	22.89645
369.255	13.06085
369.471	15.44702
369.688	10.5317
369.905	22.29024
370.122	12.76172
370.339	24.33715
370.555	13.31648
370.772	19.03741
370.989	17.06486
371.205	19.05101
371.422	13.63328
371.639	20.79233
371.855	17.28782
372.072	20.34104
372.289	13.63192
372.505	20.73524
372.722	12.67334
372.939	19.76196
373.155	12.68694
373.372	24.2692
373.589	16.51018
373.805	19.99169
374.022	11.75823
374.238	17.12876
374.455	13.78013
374.671	22.1815
374.888	18.06271
375.104	23.93893
375.321	5.27544
375.537	19.43843
375.754	16.92212
375.97	20.35327
376.187	17.06214
376.403	20.73524
376.62	10.89749
376.836	21.29799
377.053	9.63691
377.269	24.30725
377.486	13.24033
377.702	14.77402
377.918	8.49324
378.135	19.45203
378.351	18.57386
378.568	22.99567
378.784	9.47917
379	21.56848
379.217	11.935
379.433	15.54627
379.649	16.9629
379.865	22.20053
380.082	12.09137
380.298	23.40886
380.514	18.32101
380.731	22.49956
380.947	12.10225
381.163	19.0347
381.379	14.9195
381.596	22.6083
381.812	18.10486
382.028	22.09723
382.244	14.8556
382.46	18.65134
382.676	16.66109
382.893	16.55641
383.109	7.07887
383.325	22.2481
383.541	11.36526
383.757	22.19509
383.973	12.97655
384.189	27.93315
384.405	20.1018
384.622	23.18324
384.838	15.22948
385.054	22.38403
385.27	17.67663
385.486	21.77101
385.702	10.65136
385.918	22.72383
386.134	18.43928
386.35	23.15197
386.566	19.8476
386.782	27.14767
386.998	17.48766
387.214	26.46545
387.43	14.83928
387.646	27.99022
387.861	19.8843
388.077	28.60853
388.293	18.06271
388.509	20.19151
388.725	14.63262
388.941	16.89085
389.157	13.69991
389.373	22.23587
389.588	17.75956
389.804	21.23954
390.02	18.67309
390.236	21.44615
390.452	14.11324
390.668	25.44346
390.883	17.76363
391.099	28.39654
391.315	13.83315
391.531	23.09625
391.746	15.41847
391.962	27.98343
392.178	15.97997
392.393	26.44099
392.609	20.76107
392.825	25.79409
393.041	13.52587
393.256	29.90761
393.472	20.21598
393.687	29.38445
393.903	16.1771
394.119	24.92972
394.334	21.96946
394.55	31.86834
394.766	18.32916
394.981	28.31636
395.197	20.95137
395.412	28.75665
395.628	25.22193
395.843	32.25829
396.059	27.58933
396.274	32.10612
396.49	21.62693
396.705	28.57999
396.921	16.87046
397.136	30.35602
397.352	19.05781
397.567	21.48557
397.783	18.3278
397.998	29.68612
398.214	18.4284
398.429	22.88693
398.644	21.96131
398.86	25.98028
399.075	17.89142
399.29	21.31022
399.506	16.06834
399.721	26.02649
399.936	12.6679
400.152	25.82263
400.367	18.94905
400.582	22.06461
400.798	21.73839
401.013	23.47138
401.228	19.43707
401.444	24.28551
401.659	23.32459
401.874	29.1616
402.089	16.54009
402.304	30.38863
402.52	16.53194
402.735	25.48015
402.95	15.95685
403.165	30.89818
403.38	17.96211
403.596	28.39926
403.811	22.04694
404.026	29.89946
404.241	17.98794
404.456	26.14744
404.671	22.05373
404.886	29.51083
405.101	21.73295
405.316	28.74442
405.532	22.20597
405.747	27.20339
405.962	19.31473
406.177	25.63101
406.392	20.91875
406.607	30.50821
406.822	22.91412
407.037	31.96345
407.252	24.58995
407.467	38.13953
407.682	26.06454
407.896	46.35398
408.111	33.83436
408.326	43.17335
408.541	39.49112
408.756	51.06175
408.971	43.7818
409.186	52.24977
409.401	43.96515
409.616	36.39119
409.83	21.54537
410.045	22.47917
410.26	17.89278
410.475	28.16145
410.69	18.95993
410.905	22.33509
411.119	17.02952
411.334	25.5318
411.549	18.05999
411.764	29.92935
411.978	20.05694
412.193	27.85433
412.408	21.61062
412.623	24.74489
412.837	21.84305
413.052	26.14608
413.267	18.06543
413.481	26.87587
413.696	17.3789
413.911	26.45186
414.125	14.45315
414.34	24.19173
414.554	16.6978
414.769	29.97147
414.984	17.63177
415.198	29.66438
415.413	15.25668
415.627	27.90325
415.842	18.65542
416.056	26.97644
416.271	13.80052
416.485	26.48312
416.7	15.37224
416.914	30.19568
417.129	14.80801
417.343	24.70683
417.558	17.28374
417.772	25.60654
417.987	16.38375
418.201	25.08194
418.415	16.91396
418.63	25.60383
418.844	20.26628
419.059	27.713
419.273	19.53631
419.487	27.95761
419.702	18.59561
419.916	30.58702
420.13	18.97352
420.345	23.70787
420.559	18.09398
420.773	26.80113
420.988	19.22637
421.202	31.32755
421.416	20.54086
421.63	27.12321
421.845	24.11154
422.059	27.29036
422.273	14.94805
422.487	28.82731
422.701	21.47877
422.916	28.92787
423.13	18.92458
423.344	20.94049
423.558	15.78555
423.772	23.23488
423.986	16.67876
424.201	26.08629
424.415	19.71574
424.629	29.68748
424.843	16.61215
425.057	28.62348
425.271	14.33622
425.485	25.19611
425.699	16.79432
425.913	31.32484
426.127	17.90638
426.341	23.85602
426.555	15.50956
426.769	32.71482
426.983	21.92868
427.197	25.83894
427.411	18.64863
427.625	26.26568
427.839	18.04504
428.053	30.1753
428.267	15.97181
428.481	29.68748
428.695	20.0148
428.908	26.5864
429.122	20.26764
429.336	30.83704
429.55	21.26265
429.764	29.69563
429.978	27.31618
430.191	37.84883
430.405	37.4671
430.619	49.48263
430.833	51.23826
431.047	77.33791
431.26	83.99585
431.474	104.82849
431.688	108.27692
431.901	121.81577
432.115	130.59653
432.329	149.7569
432.543	152.9995
432.756	187.00447
432.97	184.1901
433.184	147.66666
433.397	68.91583
433.611	36.78515
433.824	26.46002
434.038	28.66288
434.252	17.21305
434.465	27.10962
434.679	20.96496
434.892	30.75143
435.106	13.15739
435.319	24.10474
435.533	21.37547
435.747	28.00653
435.96	16.56864
436.174	29.95517
436.387	18.42976
436.601	27.74153
436.814	18.69485
437.027	22.3215
437.241	23.57604
437.454	22.69121
437.668	18.87836
437.881	32.33981
438.095	19.38134
438.308	29.45239
438.521	21.66771
438.735	29.93614
438.948	16.56864
439.161	26.31732
439.375	15.69718
439.588	28.47536
439.801	19.49145
440.015	29.92391
440.228	24.30454
440.441	33.46752
440.654	29.4918
440.868	34.26776
441.081	17.68886
441.294	30.71067
441.507	20.78418
441.721	25.63101
441.934	21.07914
442.147	26.4505
442.36	17.97163
442.573	29.26215
442.786	22.14616
443	31.00009
443.213	17.95939
443.426	29.30835
443.639	24.67965
443.852	34.621
444.065	28.6194
444.278	30.01088
444.491	26.37848
444.704	32.54498
444.917	21.7479
445.13	34.54763
445.343	16.41638
445.556	30.47695
445.769	24.80061
445.982	35.59781
446.195	21.75878
446.408	34.72425
446.621	24.22842
446.834	30.60604
447.047	22.49684
447.26	29.06104
447.473	24.21891
447.686	32.27731
447.899	24.90254
448.111	37.84475
448.324	23.9199
448.537	33.22704
448.75	22.1448
448.963	29.822
449.176	22.57568
449.388	27.94266
449.601	19.85304
449.814	28.14786
450.027	20.80321
450.239	27.10962
450.452	21.68946
450.665	30.34107
450.878	20.68087
451.09	30.23101
451.303	23.60594
451.516	27.27949
451.728	24.17542
451.941	27.69125
452.154	22.56072
452.366	31.15227
452.579	19.45474
452.792	32.50558
453.004	21.62965
453.217	26.36489
453.429	23.25391
453.642	28.44818
453.854	19.72526
454.067	31.82758
454.28	26.96828
454.492	29.81249
454.705	17.44144
454.917	30.09784
455.13	23.55429
455.342	32.21345
455.555	19.91829
455.767	32.70259
455.979	25.97349
456.192	31.81806
456.404	21.76693
456.617	30.12094
456.829	19.81769
457.041	33.0409
457.254	26.04823
457.466	31.89959
457.679	23.1112
457.891	33.78545
458.103	23.14518
458.315	32.04361
458.528	22.26306
458.74	28.47671
458.952	20.63329
459.165	29.49452
459.377	22.41665
459.589	27.53633
459.801	23.51759
460.014	30.31933
460.226	27.44664
460.438	28.13699
460.65	16.90172
460.862	27.54856
461.075	19.65321
461.287	29.10996
461.499	15.78147
461.711	24.10067
461.923	21.08594
462.135	28.60989
462.347	18.63367
462.559	32.03546
462.771	21.98713
462.983	28.80013
463.196	22.63548
463.408	34.61692
463.62	24.76799
463.832	29.60866
464.044	23.32051
464.256	37.56899
464.468	19.74701
464.68	28.51612
464.891	21.30071
465.103	30.0367
465.315	27.07564
465.527	26.32004
465.739	16.47892
465.951	26.52389
466.163	21.24905
466.375	30.11007
466.587	18.86885
466.799	25.63237
467.01	13.97999
467.222	28.02419
467.434	22.00072
467.646	29.02979
467.858	20.7298
468.069	26.93974
468.281	16.98873
468.493	24.76392
468.705	13.30968
468.916	28.13563
469.128	13.75973
469.34	24.57772
469.551	17.56515
469.763	21.44887
469.975	19.71302
470.186	26.33771
470.398	11.97035
470.61	27.38277
470.821	14.21929
471.033	25.95174
471.245	18.78185
471.456	23.54206
471.668	17.65488
471.879	22.28616
472.091	18.79816
472.302	29.65486
472.514	22.6382
472.725	25.17708
472.937	18.85661
473.148	23.44148
473.36	16.7984
473.571	29.1385
473.783	14.43275
473.994	27.46295
474.206	14.2057
474.417	29.92663
474.629	18.45559
474.84	32.01236
475.051	20.90379
475.263	26.66523
475.474	15.27435
475.685	30.68621
475.897	19.62874
476.108	31.35337
476.319	16.4558
476.531	24.46491
476.742	22.29296
476.953	26.60407
477.165	22.51723
477.376	28.76888
477.587	18.93546
477.798	29.74455
478.01	17.06622
478.221	31.40772
478.432	17.72557
478.643	26.6231
478.854	19.83944
479.065	33.99739
479.277	23.16829
479.488	31.0096
479.699	22.33374
479.91	29.24449
480.121	20.47425
480.332	33.13465
480.543	20.4294
480.754	25.21513
480.965	20.86301
481.176	32.38873
481.387	27.46295
481.598	34.08842
481.809	31.56262
482.02	52.41405
482.231	80.62029
482.442	161.08881
482.653	273.11623
482.864	418.31586
483.075	609.14546
483.286	845.69517
483.497	1112.00931
483.708	1326.25167
483.919	1500.41126
484.13	1664.16381
484.341	1872.90975
484.551	2186.22845
484.762	2428.53348
484.973	2519.38137
485.184	1779.39347
485.395	634.79387
485.605	208.05674
485.816	110.8213
486.027	56.03613
486.238	52.13979
486.449	44.83841
486.659	46.29966
486.87	28.3218
487.081	38.56879
487.291	31.8398
487.502	33.24606
487.713	25.48151
487.923	38.35552
488.134	21.63916
488.345	37.89094
488.555	24.11834
488.766	30.09649
488.976	25.66226
489.187	34.15771
489.398	23.78671
489.608	35.1916
489.819	19.05645
490.029	29.7296
490.24	27.38821
490.45	36.59361
490.661	23.93077
490.871	33.0803
491.082	22.96848
491.292	29.52985
491.503	24.05717
491.713	32.37242
491.924	24.05853
492.134	32.97976
492.344	24.83867
492.555	35.74725
492.765	29.97419
492.975	33.15367
493.186	26.05231
493.396	35.08427
493.607	22.29704
493.817	35.42663
494.027	23.55565
494.237	32.93357
494.448	19.32153
494.658	33.07623
494.868	22.99839
495.078	33.65094
495.289	21.42848
495.499	32.82895
495.709	22.62325
495.919	33.0178
496.129	24.28415
496.34	29.13578
496.55	20.12083
496.76	32.2284
496.97	24.16047
497.18	33.17405
497.39	22.48461
497.6	31.11287
497.81	26.99818
498.021	38.35959
498.231	27.32433
498.441	32.29226
498.651	24.25289
498.861	28.33403
499.071	22.62189
499.281	33.80311
499.491	22.78635
499.701	31.86698
499.911	25.25862
500.121	31.75149
500.331	23.05819
500.54	37.804
500.75	25.73158
500.96	31.75013
501.17	20.37094
501.38	35.3587
501.59	27.50644
501.8	33.95392
502.01	20.66592
502.219	35.53124
502.429	27.64097
502.639	37.68717
502.849	28.08806
503.059	35.09378
503.268	21.4543
503.478	30.5843
503.688	21.00438
503.898	31.2107
504.107	26.92072
504.317	39.54274
504.527	21.40673
504.736	33.14824
504.946	22.91684
505.156	31.65637
505.365	22.70208
505.575	29.57605
505.785	21.83354
505.994	35.90212
506.204	18.89876
506.413	25.01399
506.623	20.88476
506.832	33.06128
507.042	23.15741
507.251	35.95646
507.461	23.66166
507.67	29.51354
507.88	19.74293
508.089	28.89933
508.299	21.09138
508.508	30.10872
508.718	18.87972
508.927	32.27324
509.137	26.90169
509.346	34.76365
509.555	21.33877
509.765	31.95937
509.974	32.75286
510.184	34.55986
510.393	21.04924
510.602	29.04609
510.812	26.00746
511.021	29.1779
511.23	26.57553
511.439	25.81856
511.649	16.83783
511.858	35.38587
512.067	22.34189
512.276	33.99332
512.486	38.30933
512.695	31.75556
512.904	21.15934
513.113	29.77988
513.322	23.50944
513.531	34.61828
513.741	27.09603
513.95	28.62076
514.159	22.14208
514.368	29.86277
514.577	23.12751
514.786	28.9863
514.995	20.07461
515.204	33.94441
515.413	26.16647
515.622	29.53257
515.831	23.12343
516.04	29.8519
516.249	20.08141
516.458	26.99003
516.667	19.79866
516.876	33.20938
517.085	22.11626
517.294	33.16862
517.503	20.79913
517.712	30.80443
517.921	21.42576
518.13	36.79466
518.339	23.77583
518.547	34.50416
518.756	20.67679
518.965	31.96888
519.174	19.75516
519.383	32.1034
519.591	19.05781
519.8	25.25047
520.009	23.16013
520.218	28.08263
520.426	18.28566
520.635	28.68191
520.844	22.32014
521.053	29.71058
521.261	25.65003
521.47	33.91723
521.679	23.59506
521.887	26.74405
522.096	22.58383
522.304	27.91004
522.513	21.6079
522.722	27.70484
522.93	24.48666
523.139	29.69291
523.347	20.17384
523.556	30.65224
523.764	19.67632
523.973	28.55961
524.182	20.81408
524.39	26.98867
524.598	22.64635
524.807	27.65184
525.015	18.18914
525.224	30.09513
525.432	17.0703
525.641	28.39654
525.849	20.52455
526.057	27.00633
526.266	23.99737
526.474	27.80812
526.683	21.56712
526.891	28.65201
527.099	19.39221
527.308	31.31125
527.516	15.32058
527.724	30.80986
527.932	18.15244
528.141	30.5449
528.349	20.98263
528.557	29.17654
528.765	20.83583
528.974	25.66498
529.182	16.4191
529.39	29.82608
529.598	14.94397
529.806	26.88538
530.015	18.73291
530.223	28.91564
530.431	19.62331
530.639	27.29308
530.847	17.0268
531.055	29.27438
531.263	21.72887
531.471	30.63865
531.679	16.6271
531.887	28.40469
532.095	17.68207
532.303	29.24721
532.511	19.2087
532.719	30.71203
532.927	19.60835
533.135	31.78545
533.343	24.91613
533.551	26.72774
533.759	22.6314
533.967	34.34248
534.175	23.82068
534.383	35.19839
534.591	30.45793
534.798	31.18624
535.006	19.43843
535.214	28.62484
535.422	17.7011
535.63	30.68757
535.837	18.56434
536.045	28.30006
536.253	24.0096
536.461	29.97419
536.668	23.76496
536.876	32.44579
537.084	23.4972
537.292	34.27863
537.499	23.8832
537.707	28.45905
537.915	26.9479
538.122	34.80712
538.33	27.92635
538.538	28.44002
538.745	24.93244
538.953	35.34376
539.16	24.45132
539.368	28.79198
539.575	21.32653
539.783	30.45929
539.99	28.43323
540.198	30.15492
540.406	22.29432
540.613	30.32613
540.82	23.43876
541.028	32.14688
541.235	25.12136
541.443	35.84506
541.65	29.28525
541.858	35.01499
542.065	24.09251
542.272	33.02188
542.48	25.90146
542.687	29.26759
542.895	26.16647
543.102	32.07351
543.309	24.22842
543.516	34.04494
543.724	25.69352
543.931	29.4157
544.138	25.38502
544.346	33.94169
544.553	23.88049
544.76	27.29308
544.967	19.5431
545.174	32.81264
545.382	24.45948
545.589	29.11811
545.796	27.49964
546.003	30.09377
546.21	18.34955
546.417	37.54725
546.624	27.29308
546.832	30.96748
547.039	25.35104
547.246	38.68561
547.453	25.88923
547.66	30.77046
547.867	23.20498
548.074	35.97277
548.281	20.06509
548.488	29.79347
548.695	22.32422
548.902	32.64145
549.109	21.89878
549.316	31.82893
549.523	15.41031
549.73	31.08433
549.936	19.16656
550.143	30.00001
550.35	18.21361
550.557	28.60853
550.764	17.58147
550.971	30.35466
551.178	24.87128
551.384	32.81808
551.591	22.35956
551.798	33.50964
552.005	20.83583
552.211	35.41576
552.418	22.37043
552.625	28.00109
552.832	21.26808
553.038	37.80807
553.245	22.96441
553.452	32.03003
553.658	21.02205
553.865	31.27049
554.072	19.44115
554.278	29.08142
554.485	30.1291
554.691	35.0802
554.898	24.19581
555.105	32.3534
555.311	24.56277
555.518	36.83134
555.724	25.65547
555.931	34.693
556.137	20.88612
556.344	33.67132
556.55	25.61742
556.757	33.64143
556.963	24.43365
557.17	32.80993
557.376	23.84651
557.582	31.75013
557.789	23.22129
557.995	32.37786
558.202	25.01535
558.408	31.36152
558.614	21.22187
558.821	33.39416
559.027	26.34178
559.233	31.06259
559.439	25.14174
559.646	33.01916
559.852	23.62497
560.058	33.16862
560.264	26.23578
560.471	32.60748
560.677	24.62393
560.883	35.71736
561.089	26.77666
561.295	33.78952
561.502	21.75606
561.708	35.6766
561.914	28.15057
562.12	32.52596
562.326	23.19955
562.532	34.51774
562.738	26.32412
562.944	30.80443
563.15	23.5108
563.356	32.61699
563.562	23.96883
563.768	36.96855
563.974	20.24725
564.18	31.71208
564.386	26.34314
564.592	34.7324
564.798	21.46518
565.004	34.76772
565.21	20.32473
565.416	39.77501
565.622	23.93621
565.828	32.60476
566.034	28.93738
566.239	37.06092
566.445	31.45528
566.651	39.02113
566.857	31.39006
567.063	36.50802
567.268	32.20258
567.474	41.17814
567.68	30.79763
567.886	42.74145
568.091	41.4688
568.297	46.01176
568.503	39.83614
568.708	51.04817
568.914	45.31373
569.12	47.46887
569.325	42.95876
569.531	48.34745
569.737	34.03408
569.942	47.61417
570.148	41.61821
570.353	59.34418
570.559	44.62519
570.765	52.68287
570.97	46.54953
571.176	60.17893
571.381	43.42868
571.587	47.70923
571.792	37.2022
571.998	43.51696
572.203	37.25247
572.408	62.01802
572.614	58.06961
572.819	61.63664
573.025	47.23395
573.23	54.88629
573.435	47.34801
573.641	57.49813
573.846	42.44537
574.051	57.47234
574.257	52.59326
574.462	59.89254
574.667	44.89952
574.873	54.6908
575.078	54.91616
575.283	57.04203
575.488	54.198
575.694	69.05558
575.899	51.43921
576.104	64.31432
576.309	53.96585
576.514	57.07325
576.719	68.92939
576.925	81.61849
577.13	68.0827
577.335	63.36162
577.54	58.42932
577.745	57.08547
577.95	50.61912
578.155	55.01119
578.36	42.24978
578.565	54.67587
578.77	58.38995
578.975	71.43811
579.18	52.86751
579.385	63.31955
579.59	65.89257
579.795	66.47201
580	46.96371
580.205	57.73975
580.41	68.48977
580.615	104.43417
580.82	100.02029
581.024	89.7492
581.229	77.76654
581.434	84.00941
581.639	63.6914
581.844	60.35946
582.049	46.68804
582.253	60.40289
582.458	42.27695
582.663	52.23483
582.868	37.20085
583.072	44.34542
583.277	50.7644
583.482	65.03356
583.686	60.13414
583.891	64.16096
584.096	59.27903
584.3	73.57217
584.505	53.15127
584.71	64.90193
584.914	60.62413
585.119	63.29512
585.323	53.24766
585.528	53.28296
585.733	47.79749
585.937	57.05967
586.142	40.27623
586.346	64.79744
586.551	52.91503
586.755	61.74929
586.959	66.43944
587.164	71.81257
587.368	51.82073
587.573	64.36588
587.777	77.62683
587.982	191.23429
588.186	375.67688
588.39	205.64412
588.595	125.98512
588.799	239.63005
589.003	120.23534
589.208	67.10028
589.412	50.36521
589.616	54.63922
589.82	44.93619
590.025	49.10786
590.229	37.82437
590.433	45.93843
590.637	38.1504
590.842	58.8501
591.046	52.30679
591.25	53.42144
591.454	35.03536
591.658	49.85739
591.862	59.91426
592.067	91.0738
592.271	67.7489
592.475	66.32002
592.679	58.66279
592.883	59.23016
593.087	56.55741
593.291	52.65029
593.495	44.26122
593.699	50.46026
593.903	54.53604
594.107	77.56579
594.311	67.48837
594.515	68.62953
594.719	53.11054
594.923	58.62749
595.127	56.3375
595.33	56.81262
595.534	41.96456
595.738	59.65908
595.942	47.27876
596.146	49.97009
596.35	42.97642
596.553	54.13419
596.757	50.77662
596.961	73.13941
597.165	51.77321
597.369	46.53323
597.572	43.76007
597.776	50.25794
597.98	57.60673
598.183	70.50602
598.387	57.79948
598.591	53.10782
598.794	48.46151
598.998	53.04265
599.202	55.60444
599.405	67.04058
599.609	53.50425
599.812	65.46103
600.016	58.40353
600.22	73.25065
600.423	65.3864
600.627	70.02843
600.83	47.63997
601.034	63.0359
601.237	67.22784
601.441	53.45674
601.644	45.20644
601.847	64.00354
602.051	54.73696
602.254	58.92476
602.458	57.27144
602.661	72.30641
602.864	56.85877
603.068	53.79479
603.271	44.88186
603.475	52.06376
603.678	47.48788
603.881	54.84421
604.084	40.44331
604.288	49.79086
604.491	55.57457
604.694	62.47539
604.897	41.66167
605.101	47.58837
605.304	52.83629
605.507	49.92528
605.71	38.12051
605.913	61.20911
606.116	51.42291
606.32	57.82934
606.523	41.71329
606.726	54.86186
606.929	45.85423
607.132	57.15741
607.335	51.39033
607.538	48.86752
607.741	38.09063
607.944	45.88682
608.147	36.25534
608.35	48.08401
608.553	41.63043
608.756	49.17847
608.959	45.12632
609.162	64.24782
609.365	53.64409
609.568	52.29457
609.771	34.52046
609.973	52.72903
610.176	48.19672
610.379	47.79206
610.582	39.09448
610.785	50.66121
610.988	45.07878
611.19	48.81456
611.393	33.71616
611.596	41.14961
611.799	32.59797
612.001	52.75483
612.204	36.66153
612.407	46.46262
612.609	40.17164
612.812	49.05762
613.015	39.8864
613.217	46.49657
613.42	36.26756
613.623	43.40695
613.825	44.14306
614.028	53.55177
614.23	39.42184
614.433	42.33264
614.636	41.7486
614.838	54.48445
615.041	47.15654
615.243	41.77305
615.446	27.74833
615.648	38.03493
615.85	36.22817
616.053	36.20915
616.255	34.52454
616.458	39.52236
616.66	32.91047
616.863	35.59781
617.065	24.31813
617.267	39.64733
617.47	31.23516
617.672	37.98331
617.874	25.33473
618.077	36.06379
618.279	35.78936
618.481	44.0412
618.683	32.92813
618.886	32.44036
619.088	39.70438
619.29	49.00602
619.492	30.98786
619.694	38.0132
619.897	35.51901
620.099	35.47146
620.301	20.62786
620.503	30.54082
620.705	25.472
620.907	37.06228
621.109	27.42762
621.311	38.00233
621.513	31.64414
621.715	43.01716
621.917	32.25829
622.119	38.80379
622.321	33.35068
622.523	37.72657
622.725	30.42124
622.927	37.35979
623.129	28.48351
623.331	33.10068
623.533	25.22057
623.735	36.83677
623.937	30.09784
624.139	34.80441
624.341	26.86908
624.542	26.58097
624.744	19.55534
624.946	34.49329
625.148	25.40676
625.35	35.83148
625.551	23.25391
625.753	30.12774
625.955	21.08866
626.156	34.65768
626.358	24.99632
626.56	33.45122
626.762	29.81657
626.963	35.37365
627.165	25.22465
627.366	35.49048
627.568	21.51003
627.77	32.40639
627.971	25.77235
628.173	35.77442
628.374	23.43332
628.576	32.2515
628.777	31.43897
628.979	29.93071
629.18	24.27192
629.382	26.27791
629.583	23.68205
629.785	32.53139
629.986	20.54358
630.188	26.42604
630.389	22.44655
630.591	31.48109
630.792	16.82831
630.993	23.6603
631.195	16.82695
631.396	25.95718
631.597	17.35036
631.799	27.32026
632	25.28852
632.201	29.50675
632.402	22.44111
632.604	32.06671
632.805	18.7166
633.006	26.62717
633.207	22.0483
633.409	35.70921
633.61	19.34735
633.811	33.52187
634.012	20.96904
634.213	31.4512
634.414	26.10803
634.615	32.00149
634.816	25.1798
635.017	31.45664
635.219	22.2617
635.42	31.75692
635.621	23.97834
635.822	34.87098
636.023	21.82946
636.224	31.36424
636.425	22.65859
636.626	28.68055
636.826	21.84713
637.027	33.6129
637.228	18.21089
637.429	23.99058
637.63	18.44063
637.831	23.81797
638.032	17.80986
638.233	25.74245
638.433	15.36408
638.634	28.99445
638.835	19.24404
639.036	25.53315
639.237	13.10301
639.437	24.25425
639.638	20.49464
639.839	28.17775
640.039	11.3367
640.24	24.99496
640.441	16.67197
640.641	17.35987
640.842	16.71683
641.043	20.81544
641.243	13.65096
641.444	22.58111
641.645	17.30685
641.845	24.27464
642.046	18.71796
642.246	27.53362
642.447	8.94609
642.647	23.59099
642.848	17.69702
643.048	28.48079
643.249	16.16894
643.449	24.01912
643.65	13.2145
643.85	22.28073
644.05	14.79169
644.251	20.87797
644.451	19.29434
644.651	24.71499
644.852	14.1282
645.052	23.1846
645.252	14.69652
645.453	20.22821
645.653	13.50683
645.853	23.64943
646.054	12.80251
646.254	23.05955
646.454	11.8507
646.654	20.39813
646.854	14.53065
647.055	23.01606
647.255	16.14447
647.455	25.41763
647.655	15.13023
647.855	23.70787
648.055	12.98335
648.255	24.64024
648.455	16.45852
648.655	27.78638
648.856	15.19549
649.056	24.64567
649.256	14.23153
649.456	22.36228
649.656	17.48766
649.856	24.58315
650.055	13.69583
650.255	27.80948
650.455	18.703
650.655	27.73338
650.855	28.27016
651.055	40.9744
651.255	33.89278
651.455	44.62926
651.655	26.65979
651.854	37.4019
652.054	20.67543
652.254	35.33833
652.454	35.15492
652.654	42.54451
652.853	46.25077
653.053	71.88176
653.253	118.63044
653.452	278.94935
653.652	867.22174
653.852	2147.75264
654.051	4124.75036
654.251	6966.88757
654.451	10456.66641
654.65	14454.06356
654.85	20242.08157
655.049	30768.13153
655.249	41029.7763
655.449	31690.57541
655.648	11502.17228
655.848	3458.82302
656.047	1912.25923
656.247	1497.83191
656.446	1190.40769
656.645	881.61664
656.845	627.09481
657.044	435.70613
657.244	276.19927
657.443	191.2424
657.643	129.58658
657.842	99.09189
658.041	72.09477
658.241	73.6997
658.44	50.43446
658.639	54.89851
658.839	43.80489
659.038	48.05142
659.237	32.38329
659.436	40.62939
659.636	32.82895
659.835	34.83701
660.034	28.96184
660.233	36.07737
660.432	24.31541
660.631	38.81601
660.831	22.72927
661.03	36.04613
661.229	27.27405
661.428	34.51774
661.627	25.93679
661.826	29.1847
662.025	22.49684
662.224	28.6724
662.423	21.91101
662.622	26.48448
662.821	19.58388
663.02	30.98786
663.219	17.30277
663.418	30.16986
663.617	17.59914
663.816	29.63448
664.015	16.40006
664.214	23.26479
664.412	15.78691
664.611	25.5481
664.81	15.40623
665.009	28.22124
665.208	19.15296
665.406	23.30284
665.605	14.29271
665.804	22.54849
666.003	17.26879
666.201	18.79544
666.4	16.51154
666.599	23.11935
666.798	12.14032
666.996	24.36434
667.195	9.94424
667.394	21.36187
667.592	15.13295
667.791	23.24304
667.989	14.67069
668.188	22.40985
668.386	16.79976
668.585	22.00344
668.783	14.6231
668.982	26.33091
669.18	11.46996
669.379	21.06283
669.577	10.25157
669.776	21.84441
669.974	13.23897
670.173	16.25867
670.371	11.15177
670.57	19.47785
670.768	12.97111
670.966	28.34354
671.165	21.99529
671.363	22.12034
671.561	15.40759
671.76	26.9411
671.958	15.29746
672.156	26.78754
672.354	7.22575
672.553	19.78779
672.751	7.89078
672.949	21.62013
673.147	12.17568
673.345	24.33036
673.543	11.54747
673.742	16.56321
673.94	15.35185
674.138	16.33073
674.336	12.12129
674.534	19.80954
674.732	15.21589
674.93	19.81769
675.128	12.38644
675.326	17.77315
675.524	9.18135
675.722	19.86799
675.92	6.99727
676.118	16.93707
676.316	9.37718
676.514	19.79866
676.712	7.38759
676.91	16.76034
677.108	12.30893
677.305	18.85933
677.503	10.84989
677.701	23.29469
677.899	9.69539
678.097	23.66166
678.295	7.21487
678.492	17.14235
678.69	11.36118
678.888	20.45522
679.085	12.9548
679.283	19.34464
679.481	9.67499
679.679	19.06324
679.876	8.74482
680.074	17.9091
680.271	9.0372
680.469	18.16467
680.667	9.71851
680.864	20.66456
681.062	14.24513
681.259	19.46154
681.457	4.42536
681.654	15.61424
681.852	7.21895
682.049	16.79704
682.247	6.19621
682.444	17.03903
682.642	7.49503
682.839	16.25187
683.037	7.8527
683.234	23.10033
683.431	8.83594
683.629	20.28803
683.826	7.41343
684.023	16.53466
684.221	14.29543
684.418	20.37502
684.615	13.84811
684.813	24.68509
685.01	17.08118
685.207	19.85304
685.404	6.46006
685.601	20.57756
685.799	13.2281
685.996	17.11381
686.193	11.77455
686.39	16.73043
686.587	9.65051
686.784	19.43435
686.981	10.84037
687.179	18.87836
687.376	9.18679
687.573	17.71605
687.77	7.38487
687.967	15.76244
688.164	6.77422
688.361	16.97378
688.558	6.65182
688.755	17.72965
688.952	13.69175
689.148	22.48053
689.345	9.10248
689.542	15.00651
689.739	11.12729
689.936	14.82568
690.133	8.77882
690.33	15.31106
690.526	8.23893
690.723	23.75001
690.92	10.84581
691.117	20.58844
691.314	11.14905
691.51	17.49038
691.707	9.20991
691.904	18.82943
692.1	10.21757
692.297	17.91589
692.494	5.91468
692.69	23.40478
692.887	13.02822
693.084	15.64823
693.28	4.48657
693.477	13.32192
693.673	9.69811
693.87	14.68293
694.066	7.29103
694.263	17.38434
694.459	10.03535
694.656	12.99287
694.852	10.33452
695.049	18.16603
695.245	7.11967
695.442	17.57875
695.638	3.81193
695.834	12.75356
696.031	8.75162
696.227	17.21169
696.423	11.79087
696.62	22.30111
696.816	13.95552
697.012	16.0561
697.209	7.00679
697.405	18.3849
697.601	13.63192
697.797	17.43056
697.994	5.06734
698.19	15.90655
698.386	8.21853
698.582	15.61968
698.778	3.70312
698.974	15.68222
699.17	3.2665
699.367	16.38239
699.563	5.5801
699.759	14.26552
699.955	5.25504
700.151	17.10021
700.347	6.18533
700.543	18.01105
700.739	7.89214
700.935	12.10089
701.131	5.21015
701.327	14.72779
701.523	8.73394
701.718	12.93576
701.914	7.19583
702.11	20.19559
702.306	9.29966
702.502	16.87046
702.698	5.27408
702.894	14.50346
703.089	7.22167
703.285	14.56192
703.481	9.92521
703.677	13.25937
703.872	4.07581
704.068	14.31583
704.264	0.36911
704.459	9.9796
704.655	2.56054
704.851	12.58632
705.046	0.69423
705.242	10.24885
705.438	3.94659
705.633	11.14089
705.829	5.97452
706.024	16.46396
706.22	13.18323
706.415	18.90283
706.611	6.18261
706.806	17.70382
707.002	7.45287
707.197	13.37358
707.393	6.26421
707.588	13.06901
707.784	6.23157
707.979	13.83995
708.174	3.62287
708.37	13.42117
708.565	2.47213
708.76	13.84675
708.956	6.73614
709.151	12.76852
709.346	6.18805
709.542	13.02686
709.737	1.14586
709.932	14.78762
710.127	7.65414
710.322	13.43069
710.518	5.338
710.713	10.23933
710.908	5.47401
711.103	8.64555
711.298	3.56982
711.493	11.26191
711.688	7.69222
711.883	11.91868
712.078	7.6419
712.273	16.87046
712.468	5.04694
712.663	12.55096
712.858	7.29239
713.053	19.02926
713.248	8.53675
713.443	12.03834
713.638	3.21209
713.833	12.10633
714.028	8.3518
714.223	16.11728
714.418	9.20447
714.613	15.46877
714.807	9.71851
715.002	16.48571
715.197	2.73601
715.392	8.7625
715.587	3.1128
715.781	13.36135
715.976	2.75506
716.171	12.13081
716.365	6.39342
716.56	19.65321
716.755	3.72896
716.949	11.95812
717.144	4.98166
717.339	10.92604
717.533	8.55715
717.728	15.23628
717.922	6.18533
718.117	13.08125
718.312	5.3448
718.506	13.8889
718.701	14.16627
718.895	20.48105
719.089	4.7858
719.284	12.86098
719.478	4.92725
719.673	10.42155
719.867	9.72395
720.062	15.95549
720.256	5.15303
720.45	13.06493
720.645	6.72798
720.839	16.7046
721.033	3.2733
721.228	12.57136
721.422	4.30567
721.616	14.52929
721.81	6.18805
722.005	12.15392
722.199	1.82601
722.393	11.69704
722.587	5.19111
722.781	14.25872
722.975	7.50455
723.169	18.33052
723.364	5.80043
723.558	10.50858
723.752	4.0622
723.946	13.07173
724.14	3.37531
724.334	13.95008
724.528	9.3255
724.722	19.15704
724.916	7.97782
725.11	15.0976
725.304	8.69994
725.498	19.62467
725.692	7.04215
725.885	15.38176
726.079	10.91652
726.273	12.71957
726.467	6.49814
726.661	11.02803
726.855	7.02447
727.048	20.26084
727.242	3.33043
727.436	13.01327
727.63	4.61442
727.823	14.56736
728.017	4.07581
728.211	12.25998
728.405	7.5875
728.598	17.46591
728.792	6.76334
728.986	18.11845
729.179	9.05216
729.373	16.6978
729.566	7.09655
729.76	12.85826
729.953	4.85517
730.147	16.44629
730.34	8.35316
730.534	24.38201
730.727	9.57164
730.921	17.59098
731.114	9.58932
731.308	17.83025
731.501	9.14328
731.695	16.31713
731.888	5.98404
732.081	16.22196
732.275	6.88983
732.468	19.2454
732.661	5.98268
732.855	13.93513
733.048	2.34291
733.241	10.22981
733.434	8.21173
733.628	21.00302
733.821	8.83322
734.014	16.76713
734.207	7.13463
734.4	15.74884
734.594	4.85653
734.787	18.16195
734.98	7.07751
735.173	21.86072
735.366	3.73032
735.559	13.292
735.752	7.02583
735.945	9.78786
736.138	5.9242
736.331	13.96096
736.524	7.23527
736.717	14.72643
736.91	9.43429
737.103	16.59855
737.296	3.34811
737.489	11.80446
737.682	-2.44424
737.875	10.09519
738.067	3.06791
738.26	15.12072
738.453	7.70854
738.646	15.40215
738.839	8.53811
739.031	20.07189
739.224	5.52842
739.417	18.44335
739.61	7.7031
739.802	11.90645
739.995	3.17264
740.188	18.95993
740.38	6.23701
740.573	10.93012
740.765	2.79042
740.958	11.39653
741.151	7.78198
741.343	10.70983
741.536	3.74665
741.728	12.51969
741.921	5.45769
742.113	12.39188
742.306	5.08639
742.498	17.48494
742.691	7.36991
742.883	13.98543
743.076	1.95931
743.268	15.53267
743.46	7.15503
743.653	10.31276
743.845	6.75518
744.037	14.17578
744.23	4.94493
744.422	12.37284
744.614	-1.53409
744.807	12.80795
744.999	3.78881
745.191	12.56728
745.383	4.62258
745.575	13.68631
745.768	3.66095
745.96	11.58826
746.152	4.07309
746.344	9.12968
746.536	6.78511
746.728	16.17846
746.92	8.57075
747.112	15.41983
747.304	3.02438
747.496	10.48002
747.688	0.37591
747.88	6.36622
748.072	5.93372
748.264	13.60201
748.456	6.5539
748.648	13.76109
748.84	5.88748
749.032	16.95203
749.224	8.82642
749.416	14.05885
749.608	3.34947
749.799	17.228
749.991	7.15775
750.183	18.36451
750.375	1.92123
750.567	8.7217
750.758	-1.6919
750.95	12.39052
751.142	6.57838
751.333	12.83514
751.525	7.26791
751.717	11.40877
751.908	7.81734
752.1	14.256
752.292	5.91468
752.483	12.09817
752.675	6.19893
752.866	15.39399
753.058	12.65294
753.249	19.21142
753.441	7.19583
753.632	10.39843
753.824	4.52601
754.015	10.12374
754.207	5.18159
754.398	17.62361
754.589	3.45149
754.781	15.94054
754.972	2.74826
755.164	14.2696
755.355	2.47213
755.546	15.53403
755.738	5.26456
755.929	13.75429
756.12	15.00107
756.311	18.63503
756.503	8.60883
756.694	14.27096
756.885	7.69222
757.076	21.62693
757.267	12.21511
757.458	16.75762
757.65	10.10743
757.841	16.9561
758.032	9.43701
758.223	18.8838
758.414	8.56803
758.605	14.9766
758.796	3.8881
758.987	21.10905
759.178	6.41246
759.369	12.90857
759.56	3.51541
759.751	13.61153
759.942	1.86273
760.133	14.14723
760.324	10.09383
760.514	12.67606
760.705	9.02088
760.896	14.82297
761.087	6.88711
761.278	13.55442
761.468	-2.50002
761.659	11.66713
761.85	3.49773
762.041	14.35526
762.231	5.09591
762.422	14.14315
762.613	12.97111
762.803	10.90837
762.994	11.02939
763.185	13.1302
763.375	4.71371
763.566	11.24696
763.757	6.33493
763.947	13.87666
764.138	7.46783
764.328	19.18967
764.519	12.45578
764.709	15.66047
764.9	5.6345
765.09	13.43885
765.281	4.32879
765.471	7.09791
765.661	4.03228
765.852	9.88577
766.042	0.55956
766.232	7.93294
766.423	-3.12858
766.613	8.94337
766.803	1.76071
766.994	10.22981
767.184	4.23086
767.374	19.0714
767.564	7.96286
767.755	16.97922
767.945	3.92483
768.135	16.69236
768.325	11.59778
768.515	19.22365
768.706	4.13429
768.896	14.54152
769.086	7.12239
769.276	17.91861
769.466	4.60218
769.656	12.43675
769.846	3.59431
770.036	16.49387
770.226	6.30365
770.416	17.09477
770.606	11.20888
770.796	16.31713
770.986	2.89244
771.176	10.70983
771.366	1.24108
771.555	10.55753
771.745	2.98085
771.935	18.01921
772.125	2.90468
772.315	9.00593
772.504	5.5597
772.694	11.64265
772.884	3.714
773.074	7.28151
773.263	3.52086
773.453	9.81778
773.643	5.21287
773.832	12.05194
774.022	3.80377
774.212	10.54393
774.401	-0.27298
774.591	8.25525
774.781	2.5075
774.97	6.53758
775.16	-0.72055
775.349	9.80282
775.539	1.01527
775.728	11.62226
775.918	3.88402
776.107	22.65179
776.297	22.49276
776.486	51.0088
776.675	48.51175
776.865	50.2851
777.054	18.17691
777.243	16.25051
777.433	6.68718
777.622	12.98199
777.811	2.66664
778.001	12.72365
778.19	5.83851
778.379	11.70112
778.568	1.98108
778.758	13.59793
778.947	2.27489
779.136	19.22773
779.325	3.43652
779.514	13.48236
779.703	7.16047
779.892	9.29286
780.082	1.87634
780.271	10.60377
780.46	6.88439
780.649	16.30354
780.838	5.35977
781.027	8.79242
781.216	4.38456
781.405	8.51907
781.594	3.45285
781.783	16.26955
781.971	9.85177
782.16	13.21722
782.349	9.26975
782.538	10.45419
782.727	3.59839
782.916	9.54988
783.105	4.93133
783.293	11.10418
783.482	8.88353
783.671	11.53659
783.86	2.70745
784.048	10.52354
784.237	-0.42807
784.426	12.39323
784.614	-2.1599
784.803	10.59153
784.992	3.28146
785.18	9.87625
785.369	5.81811
785.557	12.37012
785.746	2.17695
785.935	8.19541
786.123	2.22592
786.312	8.94201
786.5	0.73912
786.689	10.53442
786.877	4.05812
787.065	8.90257
787.254	-4.49051
787.442	7.35631
787.631	3.15224
787.819	16.92891
788.007	2.50341
788.196	15.52859
788.384	7.03535
788.572	17.84928
788.761	0.46161
788.949	10.43379
789.137	2.79178
789.325	10.56569
789.513	-2.02521
789.702	10.67176
789.89	5.42913
790.078	11.65897
790.266	1.29005
790.454	8.96513
790.642	0.55956
790.83	12.62303
791.018	6.00852
791.207	8.86449
791.395	2.60271
791.583	9.58252
791.771	1.56211
791.959	9.14871
792.146	-2.01297
792.334	9.68179
792.522	0.03582
792.71	9.01544
792.898	1.19483
793.086	13.80188
793.274	3.61335
793.462	18.18642
793.65	9.49821
793.837	9.84905
794.025	7.6827
794.213	6.97143
794.401	6.91159
794.588	11.86429
794.776	1.36079
794.964	8.49732
795.151	2.28986
795.339	12.79163
795.527	1.2166
795.714	10.30868
795.902	-0.5505
796.089	6.41246
796.277	-0.04172
796.465	13.93241
796.652	1.9974
796.84	8.61427
797.027	4.05404
797.215	11.20072
797.402	2.58639
797.59	13.37766
797.777	0.24396
797.964	8.77746
798.152	-2.21704
798.339	15.28251
798.526	0.00453
798.714	8.15325
798.901	5.69707
799.088	16.39191
799.276	1.78248
799.463	13.23626
799.65	-1.59123
799.837	5.38697
800.025	2.64488
800.212	10.80094
800.399	3.93027
800.586	9.49141
800.773	-0.20632
800.96	9.49685
801.148	-0.81306
801.335	9.21399
801.522	3.67184
801.709	6.95511
801.896	3.31411
802.083	9.75386
802.27	-2.6075
802.457	12.00163
802.644	1.15402
802.831	11.2252
803.018	0.72008
803.204	8.46468
803.391	-1.28649
803.578	9.87353
803.765	1.07376
803.952	12.64478
804.139	0.67519
804.326	12.25726
804.512	0.94317
804.699	14.03166
804.886	0.62622
805.073	8.94881
805.259	2.01372
805.446	18.13476
805.633	2.14431
805.819	13.77741
806.006	0.69967
806.192	10.93828
806.379	-1.42389
806.566	8.75706
806.752	2.97133
806.939	9.46693
807.125	-2.40615
807.312	12.80659
807.498	-1.85924
807.685	14.37429
807.871	-3.92178
808.058	10.91924
808.244	1.57163
808.43	7.46647
808.617	0.08344
808.803	9.89257
808.99	0.21267
809.176	13.02278
809.362	-0.73144
809.549	8.36132
809.735	0.27661
809.921	8.30692
810.107	3.46101
810.293	14.17035
810.48	1.41248
810.666	15.44566
810.852	1.82057
811.038	8.28516
811.224	-2.27962
811.41	8.18453
811.597	2.73329
811.783	6.35262
811.969	1.30502
812.155	3.4202
812.341	0.52011
812.527	8.29468
812.713	-0.63213
812.899	7.06527
813.085	2.66528
813.271	11.61546
813.456	2.96861
813.642	5.71339
813.828	0.13105
814.014	10.44467
814.2	-1.57762
814.386	7.66094
814.572	-2.24289
814.757	8.30012
814.943	5.37065
815.129	9.87217
815.315	1.60292
815.5	10.76695
815.686	4.57362
815.872	3.45557
816.057	1.41384
816.243	12.80115
816.429	5.42641
816.614	8.57483
816.8	0.42897
816.985	10.77374
817.171	2.86252
817.356	13.40078
817.542	5.56514
817.727	12.45578
817.913	-1.27424
818.098	6.5607
818.284	-0.72191
818.469	9.12288
818.655	2.58367
818.84	13.89162
819.025	-0.77361
819.211	8.99777
819.396	6.21389
819.581	9.84769
819.767	0.6507
819.952	12.52921
820.137	2.7877
820.322	13.36135
820.508	7.71942
820.693	12.45034
820.878	1.7784
821.063	8.42388
821.248	3.76025
821.433	6.46686
821.618	1.38119
821.804	7.38487
821.989	2.65304
822.174	9.66275
822.359	0.8942
822.544	4.67291
822.729	1.74711
822.914	6.31045
823.099	-2.52723
823.284	12.34428
823.469	-0.82802
823.653	7.9411
823.838	3.41476
824.023	9.01952
824.208	-0.32604
824.393	10.8023
824.578	2.34699
824.762	7.04487
824.947	-2.07147
825.132	10.27061
825.317	-0.48248
825.501	11.06066
825.686	0.05079
825.871	5.8698
826.056	3.65687
826.24	10.17542
826.425	3.73848
826.609	6.42198
826.794	-3.33538
826.979	12.40139
827.163	3.98876
827.348	10.65544
827.532	-0.11246
827.717	7.76022
827.901	-0.8253
828.086	8.80602
828.27	0.13241
828.455	10.49226
828.639	-0.05532
828.823	9.71987
829.008	1.37983
829.192	9.85721
829.376	3.21073
829.561	8.66051
829.745	-2.82791
829.929	7.05711
830.114	-2.18303
830.298	11.95268
830.482	-1.29873
830.666	9.9796
830.85	0.39904
831.035	8.98417
831.219	-1.87692
831.403	8.30148
831.587	1.27781
831.771	10.03399
831.955	0.27933
832.139	8.70674
832.323	-1.98032
832.507	4.46209
832.691	2.58911
832.875	5.84803
833.059	1.75391
833.243	6.93879
833.427	1.03703
833.611	12.75764
833.795	-4.03743
833.979	12.43403
834.163	0.14465
834.346	12.65702
834.53	-0.65389
834.714	10.24613
834.898	-0.81034
835.082	6.73886
835.265	1.30229
835.449	3.03254
835.633	-5.5137
835.816	9.37038
836	-3.45375
836.184	10.43107
836.367	-3.04151
836.551	6.48454
836.735	0.8738
836.918	4.57498
837.102	1.04384
837.285	4.57226
837.469	-1.74088
837.652	8.7217
837.836	-0.4852
838.019	5.02926
838.203	3.49773
838.386	6.36486
838.569	-2.48506
838.753	12.74268
838.936	-3.13266
839.12	8.22941
839.303	1.79744
839.486	4.15606
839.669	-1.82659
839.853	9.70083
840.036	-1.45926
840.219	7.43247
840.402	-4.86604
840.586	6.80687
840.769	-0.99944
840.952	6.6899
841.135	-1.91093
841.318	7.01903
841.501	-2.09596
841.684	3.91259
841.868	0.24668
842.051	8.71898
842.234	1.77432
842.417	6.01668
842.6	0.20859
842.783	7.07207
842.966	1.7716
843.149	13.82635
843.331	1.75663
843.514	22.87878
843.697	22.0714
843.88	31.12646
844.063	9.74842
844.246	14.1785
844.429	3.2665
844.611	6.91023
844.794	5.01158
844.977	9.2847
845.16	-4.15172
845.342	11.3231
845.525	0.24124
845.708	7.90302
845.89	2.43404
846.073	8.01453
846.256	1.14722
846.438	9.47509
846.621	2.7537
846.803	5.61002
846.986	-2.24017
847.168	5.83307
847.351	1.94435
847.533	10.86077
847.716	0.3147
847.898	11.42917
848.081	-3.38981
848.263	9.17727
848.446	-2.23745
848.628	8.92841
848.81	-1.45246
848.993	4.37776
849.175	-4.19254
849.357	7.04623
849.539	-0.67566
849.722	6.84631
849.904	-3.63743
850.086	6.26149
850.268	-0.54914
850.451	11.71472
850.633	1.29141
850.815	5.99492
850.997	5.80587
851.179	9.54308
851.361	-2.77213
851.543	5.73107
851.725	1.91442
851.907	8.8237
852.089	2.45173
852.271	8.46468
852.453	5.39241
852.635	12.52377
852.817	2.35515
852.999	6.78783
853.181	-0.8838
853.363	3.57254
853.545	0.8153
853.727	9.71171
853.908	-3.32994
854.09	7.09927
854.272	3.4066
854.454	9.69403
854.636	-0.38998
854.817	6.17581
854.999	-0.04308
855.181	9.99728
855.362	-1.66061
855.544	10.26381
855.726	-2.16534
855.907	7.65958
856.089	-2.25105
856.27	5.6005
856.452	-3.45783
856.634	10.29644
856.815	-1.9844
856.997	9.08344
857.178	0.44393
857.36	6.49678
857.541	-5.99265
857.722	5.39377
857.904	-4.2524
858.085	9.78922
858.267	3.2461
858.448	7.34543
858.629	0.93501
858.811	7.59974
858.992	2.3021
859.173	9.53084
859.354	-2.53404
859.536	11.11642
859.717	-3.42926
859.898	6.85175
860.079	0.94725
860.26	7.47191
860.441	-1.74768
860.623	6.36894
860.804	-3.41429
860.985	10.03671
861.166	2.53606
861.347	2.02461
861.528	-1.41165
861.709	10.04487
861.89	-1.44022
862.071	9.55396
862.252	1.50226
862.433	10.56161
862.614	5.16663
862.794	8.13557
862.975	-0.20768
863.156	9.966
863.337	-0.62532
863.518	11.52299
863.699	-1.01984
863.879	13.15195
864.06	-2.76804
864.241	8.49052
864.422	-2.59526
864.602	5.01022
864.783	-0.3995
864.964	8.33276
865.144	-1.32186
865.325	10.07343
865.506	0.70376
865.686	10.56569
865.867	0.83299
866.047	6.80279
866.228	-0.19544
866.408	3.87858
866.589	-0.18184
866.769	10.28421
866.95	0.36911
867.13	10.34404
867.31	3.82962
867.491	8.22805
867.671	-3.45919
867.852	5.84259
868.032	0.86835
868.212	9.76066
868.393	-1.52184
868.573	5.6481
868.753	-1.15453
868.933	8.08253
869.113	-1.00896
869.294	9.63147
869.474	-4.48915
869.654	7.84318
869.834	1.08465
870.014	9.06712
870.194	-3.60749
870.374	9.23575
870.555	-0.48928
870.735	7.67182
870.915	-5.73413
871.095	8.61835
871.275	0.6235
871.455	9.25343
871.634	-0.33828
871.814	8.86313
871.994	-0.60764
872.174	7.13055
872.354	-0.2689
872.534	11.13409
872.714	-1.6402
872.894	9.43157
873.073	-1.53681
873.253	6.43422
873.433	-2.06467
873.613	5.30672
873.792	-3.41566
873.972	7.18767
874.152	-3.05239
874.331	9.2915
874.511	2.5483
874.691	7.93294
874.87	-1.25248
875.05	7.28831
875.229	0.65886
875.409	6.68854
875.588	0.16506
875.768	4.97078
875.947	4.02548
876.127	10.08295
876.306	-1.48783
876.486	3.85818
876.665	-2.51907
876.844	9.966
877.024	0.78946
877.203	7.42567
877.382	0.65342
877.562	6.35806
877.741	-3.71634
877.92	9.34726
878.1	-0.46752
878.279	10.02584
878.458	-3.07552
878.637	6.51582
878.816	0.24396
878.996	3.85954
879.175	-2.13269
879.354	12.51017
879.533	1.17715
879.712	9.73482
879.891	-0.6226
880.07	7.88806
880.249	2.75914
880.428	6.76878
880.607	0.63438
880.786	2.92237
880.965	-0.53282
881.144	8.25117
881.323	-6.38453
881.502	9.04808
881.68	-4.48371
881.859	7.65142
882.038	-3.61702
882.217	5.67803
882.396	-6.48795
882.574	9.85993
882.753	-1.80754
882.932	8.91753
883.111	0.64118
883.289	10.69895
883.468	0.3147
883.647	7.40527
883.825	-1.35587
884.004	5.17071
884.182	0.65886
884.361	5.83715
884.539	-2.59798
884.718	12.34292
884.896	-1.04569
885.075	8.46876
885.253	-2.50955
885.432	10.03535
885.61	-4.79937
885.789	7.13055
885.967	-4.7463
886.145	7.20535
886.324	-3.51498
886.502	7.73982
886.68	0.48338
886.859	4.66339
887.037	-1.50824
887.215	7.51135
887.393	5.18703
887.572	3.78609
887.75	-1.64156
887.928	5.72699
888.106	-1.28105
888.284	10.21349
888.462	2.67616
888.64	4.37096
888.819	2.29938
888.997	7.07207
889.175	-1.94359
889.353	4.59674
889.531	1.2234
889.709	7.73438
889.887	-3.84287
890.065	9.53628
890.242	3.59567
890.42	10.46642
890.598	-1.44022
890.776	9.10248
890.954	-2.34357
891.132	4.78988
891.309	1.05336
891.487	8.45516
891.665	-0.71239
891.843	7.44063
892.02	-6.67028
892.198	7.15095
892.376	-1.06202
892.553	7.84318
892.731	-1.16405
892.909	5.0211
893.086	-0.05396
893.264	10.75471
893.441	-2.99117
893.619	7.49231
893.797	-1.41165
893.974	5.18431
894.151	0.84659
894.329	8.36812
894.506	-1.62796
894.684	4.99662
894.861	0.91869
895.039	6.17173
895.216	-0.17095
895.393	7.54399
895.571	-5.14088
895.748	5.5665
895.925	3.50045
896.102	9.36766
896.28	-0.31515
896.457	5.89564
896.634	1.42744
896.811	7.6283
896.988	-3.37756
897.166	6.07244
897.343	-1.77489
897.52	10.32228
897.697	-1.36403
897.874	6.7307
898.051	1.73487
898.228	7.05031
898.405	-3.40069
898.582	2.668
898.759	-2.88777
898.936	5.78139
899.113	-0.97631
899.29	10.73703
899.467	-0.7328
899.643	10.00952
899.82	2.2164
899.997	11.37206
900.174	-3.06192
900.351	9.93608
900.527	1.03295
900.704	11.1137
900.881	2.9863
901.058	3.92619
901.234	0.12289
901.411	8.95561
901.588	0.56772
901.764	8.63739
901.941	-0.84707
902.117	6.04796
902.294	-0.83755
902.471	7.86494
902.647	-3.43334
902.824	8.42932
903	0.35007
903.176	7.33455
903.353	-2.21432
903.529	13.88754
903.706	0.21131
903.882	10.50178
904.058	-1.06202
904.235	5.19791
904.411	0.48202
904.587	7.27471
904.764	-1.49463
904.94	4.11661
905.116	0.46978
905.292	5.99492
905.469	-1.54225
905.645	7.63102
905.821	-1.90413
905.997	2.43132
906.173	-0.71239
906.349	8.3858
906.525	0.30926
906.702	9.21399
906.878	-0.69606
907.054	3.8337
907.23	-0.90829
907.406	3.81057
907.582	1.60156
907.757	8.67275
907.933	-0.6675
908.109	6.38934
908.285	-2.88369
908.461	6.40974
908.637	-1.43478
908.813	5.95412
908.988	0.69151
909.164	8.5014
909.34	-1.03753
909.516	5.0755
909.691	0.79626
909.867	8.51771
910.043	-1.46062
910.219	6.80415
910.394	-1.0593
910.57	6.72118
910.745	-1.01032
910.921	6.83271
911.097	-5.49329
911.272	5.2224
911.448	-1.24295
911.623	6.85039
911.799	-3.75035
911.974	4.33424
912.149	-2.15038
912.325	7.87174
912.5	-4.21023
912.676	6.20029
912.851	-2.52859
913.026	6.4247
913.202	-2.33268
913.377	10.06119
913.552	-4.04015
913.727	8.57619
913.903	-0.37365
914.078	6.99047
914.253	-1.08242
914.428	9.21671
914.603	-2.25922
914.779	3.48005
914.954	0.1637
915.129	10.70303
915.304	2.50614
915.479	10.01768
915.654	-2.59662
915.829	7.11015
916.004	-1.13684
916.179	11.86429
916.354	-5.4307
916.529	9.66411
916.704	-3.55851
916.879	6.03164
917.053	0.98806
917.228	9.71443
917.403	-2.22112
917.578	7.18767
917.753	-2.51771
917.927	1.93483
918.102	-1.12596
918.277	9.90209
918.452	-5.02251
918.626	6.95103
918.801	0.2494
918.976	6.78919
919.15	-4.27009
919.325	6.5267
919.499	-1.32186
919.674	8.37764
919.849	-1.76945
920.023	10.21349
920.198	-4.16941
920.372	10.05711
920.547	0.98534
920.721	5.17615
920.895	0.93501
921.07	6.30909
921.244	-0.65797
921.419	13.27161
921.593	-1.13004
921.767	6.5539
921.942	-1.88917
922.116	4.42536
922.29	-1.30689
922.464	3.98604
922.639	-5.85523
922.813	7.15639
922.987	1.31454
923.161	6.73886
923.335	-4.81025
923.509	5.32848
923.683	-2.83335
923.858	5.77459
924.032	-2.4252
924.206	9.78786
924.38	-4.881
924.554	5.83307
924.728	3.66639
924.902	12.07642
925.075	1.46689
925.249	6.84495
925.423	0.25756
925.597	9.87353
925.771	-1.89461
925.945	4.22134
926.119	-1.29465
926.292	9.70083
926.466	-2.85784
926.64	13.50275
926.814	-0.29747
926.987	1.63829
927.161	-2.75716
927.335	5.0755
927.508	1.39071
927.682	2.59591
927.856	-2.65648
928.029	9.76746
928.203	1.06152
928.376	9.20583
928.55	-5.70555
928.723	5.09455
928.897	-5.08374
929.07	10.88661
929.244	-2.06059
929.417	1.64917
929.59	-3.77756
929.764	6.26285
929.937	-2.23065
930.111	9.17591
930.284	-4.89461
930.457	3.14
930.63	-2.83879
930.804	5.56786
930.977	-1.78849
931.15	6.50902
931.323	1.33902
931.497	3.99148
931.67	-4.24152
931.843	10.86621
932.016	-2.00073
932.189	6.08741
932.362	-0.99263
932.535	6.47502
932.708	-1.03617
932.881	8.86041
933.054	-0.98719
933.227	7.46919
933.4	-4.97761
933.573	6.20301
933.746	-2.73539
933.919	7.65958
934.092	-8.26509
934.264	4.44441
934.437	-3.35443
934.61	4.20638
934.783	-0.81714
934.956	5.96228
935.128	-3.81022
935.301	9.55396
935.474	-4.40207
935.646	5.42369
935.819	-1.11643
935.992	8.67275
936.164	-4.93135
936.337	9.41389
936.51	-6.35732
936.682	6.94287
936.855	-2.51907
937.027	9.85993
937.2	-2.23881
937.372	6.41518
937.545	2.94141
937.717	8.4674
937.889	-0.91509
938.062	5.68619
938.234	-0.29475
938.406	3.03118
938.579	0.85339
938.751	7.55759
938.923	1.45465
939.096	9.88169
939.268	0.26164
939.44	3.9874
939.612	-1.6334
939.784	6.80823
939.957	-0.60628
940.129	9.0372
940.301	-2.6075
940.473	7.04215
940.645	0.58132
940.817	8.45244
940.989	-1.27696
941.161	7.61742
941.333	-2.97892
941.505	7.6011
941.677	-3.4211
941.849	4.35736
942.021	-2.7177
942.193	4.43353
942.365	-4.02655
942.537	10.06255
942.708	2.17015
942.88	6.93879
943.052	-3.01974
943.224	2.97677
943.395	-1.62932
943.567	4.33968
943.739	-4.06464
943.911	6.22885
944.082	-3.50545
944.254	9.99456
944.425	-2.09732
944.597	4.67427
944.769	-1.26336
944.94	7.65006
945.112	-0.40358
945.283	11.19392
945.455	-1.11507
945.626	9.35134
945.798	-3.53947
945.969	5.04966
946.14	-3.23334
946.312	4.12069
946.483	0.37047
946.655	8.20085
946.826	-1.50416
946.997	5.02246
947.168	-7.13293
947.34	8.24029
947.511	0.84251
947.682	5.65898
947.853	-0.52193
948.025	8.23757
948.196	0.34054
948.367	4.69331
948.538	-3.32314
948.709	6.09285
948.88	-0.43487
949.051	9.50773
949.222	0.32558
949.393	12.9684
949.564	0.3936
949.735	8.99641
949.906	-3.48912
950.077	6.81775
950.248	-2.20888
950.419	4.69195
950.59	-2.28371
950.761	5.62498
950.931	3.99284
951.102	8.90937
951.273	-2.83063
951.444	9.68179
951.614	-0.1111
951.785	0.01406
951.956	-7.02951
952.126	11.26055
952.297	1.41248
952.468	1.64237
952.638	-2.30819
952.809	5.98404
952.98	-1.75312
953.15	8.32596
953.321	-5.48241
953.491	6.067
953.662	-4.18437
953.832	5.30808
954.002	-2.92178
954.173	6.44918
954.343	-2.00617
954.514	3.75481
954.684	-5.7695
954.854	8.58707
955.025	-1.0076
955.195	3.91123
955.365	-7.13701
955.535	4.55594
955.706	-0.44031
955.876	8.28381
956.046	-3.87552
956.216	10.74247
956.386	0.50243
956.557	7.34951
956.727	-2.24425
956.897	8.4878
957.067	-4.09866
957.237	7.20671
957.407	-1.32322
957.577	7.04487
957.747	-4.5218
957.917	3.10735
958.087	-2.32316
958.257	2.26265
958.427	-1.77625
958.596	5.98404
958.766	-1.02529
958.936	2.48301
959.106	-1.66197
959.276	3.23249
959.445	-3.83743
959.615	10.13462
959.785	-1.45382
959.955	8.62787
960.124	-1.05113
960.294	8.47828
960.464	-1.42525
960.633	6.40294
960.803	-3.03334
960.972	4.779
961.142	-4.67147
961.311	8.93929
961.481	2.23273
961.65	7.56167
961.82	-3.10409
961.989	8.55851
962.159	-1.70687
962.328	12.52105
962.498	0.00317
962.667	5.74331
962.836	-3.80069
963.006	7.67318
963.175	-1.11235
963.344	4.90005
963.513	-0.98447
963.683	4.19686
963.852	-2.60206
964.021	6.88439
964.19	-5.34226
964.359	4.13837
964.528	-1.82387
964.698	3.17264
964.867	-0.16007
965.036	7.02719
965.205	0.87924
965.374	7.17407
965.543	-4.09049
965.712	6.60694
965.881	-1.42661
966.05	6.23565
966.219	-1.00352
966.387	6.89119
966.556	-0.13966
966.725	6.85175
966.894	-0.12878
967.063	2.84075
967.232	-1.78849
967.4	8.28245
967.569	0.84251
967.738	9.98096
967.906	-5.81577
968.075	7.02039
968.244	-3.18572
968.412	4.41176
968.581	-2.3286
968.75	8.50955
968.918	-2.24697
969.087	5.98676
969.255	-1.76809
969.424	7.02175
969.592	1.6206
969.761	3.20529
969.929	-4.85243
970.098	11.01987
970.266	-3.45239
970.434	5.74331
970.603	-1.38172
970.771	8.99233
970.939	-3.14083
971.108	9.19087
971.276	-1.46471
971.444	8.88897
971.612	-4.42656
971.781	6.73206
971.949	5.0755
972.117	9.10792
972.285	0.0399
972.453	6.45054
972.621	-3.37348
972.789	6.37166
972.957	1.82465
973.125	7.7031
973.293	-5.36403
973.461	7.07071
973.629	0.64118
973.797	7.42567
973.965	1.17171
974.133	4.14925
974.301	-6.13144
974.469	3.26242
974.637	3.3998
974.805	6.61782
974.972	-5.86067
975.14	9.7729
975.308	-4.71637
975.476	6.02212
975.643	1.82193
975.811	4.66883
975.979	0.70376
976.146	5.49985
976.314	0.48474
976.482	10.6364
976.649	-4.63609
976.817	6.87487
976.984	0.09432
977.152	8.27701
977.319	1.07376
977.487	11.97715
977.654	-4.43064
977.822	4.96806
977.989	-3.72042
978.156	6.13637
978.324	-2.3286
978.491	6.96463
978.658	-1.44974
978.826	7.19175
978.993	-2.82655
979.16	5.91196
979.328	-6.6281
979.495	11.32038
979.662	-2.0429
979.829	6.33221
979.996	-3.9041
980.163	8.77338
980.33	-1.01168
980.498	8.03765
980.665	1.57435
980.832	6.49406
980.999	-3.90546
981.166	6.03164
981.333	-0.70287
981.5	8.38036
981.667	2.89108
981.833	7.68406
982	-0.33692
982.167	5.29448
982.334	-3.75988
982.501	5.79363
982.668	-1.86604
982.834	3.58478
983.001	-0.57771
983.168	8.63875
983.335	-2.80614
983.501	5.94868
983.668	-1.96807
983.835	3.86362
984.001	-2.28371
984.168	10.48138
984.334	1.07512
984.501	4.35328
984.668	-2.17487
984.834	7.51135
985.001	-3.27008
985.167	9.6138
985.334	-4.94359
985.5	7.42431
985.666	-4.55446
985.833	3.51813
985.999	0.38135
986.165	7.98598
986.332	0.47114
986.498	7.51271
986.664	-0.6879
986.831	6.56614
986.997	-4.61024
987.163	3.95067
987.329	-4.20206
987.495	3.26922
987.662	1.0452
987.828	4.63483
987.994	-2.94355
988.16	5.42369
988.326	-1.94495
988.492	5.10679
988.658	-3.05103
988.824	8.59659
988.99	-1.69734
989.156	3.65007
989.322	3.61063
989.488	10.75743
989.654	-1.41437
989.82	7.62966
989.985	-1.06882
990.151	10.75471
990.317	5.07822
990.483	5.10543
990.648	1.17715
990.814	4.07173
990.98	0.96358
991.146	8.67139
991.311	-2.86736
991.477	8.91617
991.643	-7.03632
991.808	3.61471
991.974	-2.80478
992.139	4.77628
992.305	-1.02392
992.47	5.24008
992.636	-1.10011
992.801	7.99686
992.967	-2.02249
993.132	8.42524
993.298	4.11661
993.463	5.81267
993.628	-0.87292
993.794	8.95833
993.959	-0.99127
994.124	7.01767
994.29	-1.24023
994.455	7.71126
994.62	-1.70006
994.785	6.81911
994.95	-5.25246
995.116	7.18767
995.281	-2.14766
995.446	7.61062
995.611	-2.14902
995.776	4.29751
995.941	-3.00477
996.106	9.62332
996.271	-5.69739
996.436	3.46101
996.601	-0.65117
996.766	4.5981
996.931	-4.61568
997.096	8.63195
997.261	-2.09188
997.425	8.23757
997.59	-3.63606
997.755	7.21351
997.92	-1.4443
998.085	8.72578
998.249	0.62077
998.414	5.27816
998.579	-5.55316
998.744	5.04422
998.908	-1.14228
999.073	8.13013
999.237	-1.1382
999.402	2.16063
999.567	-4.59391
999.731	2.94413
999.896	-3.30137
1000.06	11.76911
1000.225	-2.54628
1000.389	5.55426
1000.553	-1.3722
1000.718	8.80194
1000.882	-5.96136
1001.047	8.09205
1001.211	-5.95183
1001.375	9.52132
1001.54	-2.21296
1001.704	7.01495
1001.868	-1.02801
1002.032	9.96736
1002.197	-2.77893
1002.361	8.56123
1002.525	-2.10684
1002.689	7.95062
1002.853	-0.77361
1003.017	4.19958
1003.181	-1.35995
1003.345	6.27917
1003.509	0.59765
1003.673	5.36521
1003.837	1.64781
1004.001	6.18533
1004.165	-1.46607
1004.329	3.73304
1004.493	-1.19806
1004.657	8.19133
1004.821	-2.25241
1004.985	3.53174
1005.149	-3.85375
1005.312	8.22941
1005.476	-4.49867
1005.64	10.32228
1005.804	-3.8143
1005.967	12.76172
1006.131	-2.86872
1006.295	4.61034
1006.458	-0.50697
1006.622	5.69163
1006.785	0.91597
1006.949	7.16455
1007.113	-2.88369
1007.276	5.28632
1007.44	-1.8538
1007.603	5.83443
1007.767	-3.27008
1007.93	4.52874
1008.093	-2.71362
1008.257	7.16047
1008.42	0.52963
1008.584	10.85805
1008.747	-0.54234
1008.91	9.77018
1009.073	-5.59262
1009.237	4.24038
1009.4	-1.17357
1009.563	5.50666
1009.726	-6.3927
1009.889	10.91109
1010.053	-1.92998
1010.216	9.49413
1010.379	-1.34499
1010.542	9.61652
1010.705	-3.71906
1010.868	6.05068
1011.031	-1.68102
1011.194	4.50833
1011.357	-1.06338
1011.52	7.01903
1011.683	1.40296
1011.846	12.50201
1012.009	0.51739
1012.171	6.40566
1012.334	-2.97348
1012.497	10.68128
1012.66	0.90508
1012.823	7.45015
1012.985	-3.37076
1013.148	8.44564
1013.311	-3.48096
1013.473	4.52465
1013.636	-3.3381
1013.799	10.56569
1013.961	0.59901
1014.124	3.49229
1014.286	1.16762
1014.449	4.91637
1014.612	0.94997
1014.774	7.03671
1014.936	-3.91906
1015.099	7.01087
1015.261	-4.67419
1015.424	11.22656
1015.586	2.31162
1015.748	7.58478
1015.911	-6.86759
1016.073	9.89257
1016.235	2.50341
1016.398	3.63511
1016.56	2.27217
1016.722	5.80315
1016.884	-4.02383
1017.047	4.05948
1017.209	-0.41038
1017.371	4.5573
1017.533	-3.9694
1017.695	11.61138
1017.857	1.58116
1018.019	10.59017
1018.181	2.69249
1018.343	5.01702
1018.505	-1.21438
1018.667	7.02719
1018.829	-4.64426
1018.991	5.79907
1019.153	1.13362
1019.315	4.1751
1019.477	0.37999
1019.638	7.95878
1019.8	-4.95856
1019.962	6.36894
1020.124	-7.22954
1020.285	6.64638
1020.447	-3.10953
1020.609	9.63827
1020.77	-5.56404
1020.932	7.04487
1021.094	1.6995
1021.255	5.76235
1021.417	-1.23615
1021.578	6.33493
1021.74	-3.57076
1021.901	8.10565
1022.063	-2.41975
1022.224	10.26653
1022.386	-3.89457
1022.547	5.17751
1022.709	0.31062
1022.87	10.91516
1023.031	-1.145
1023.193	7.13327
1023.354	-0.26482
1023.515	8.22261
1023.676	-1.09059
1023.838	6.10509
1023.999	-0.18456
1024.16	9.48461
1024.321	2.48709
1024.482	4.29479
1024.644	-0.90829
1024.805	8.99097
1024.966	-0.09069
1025.127	4.74228
1025.288	-1.71503
1025.449	9.69539
1025.61	-0.42126
1025.771	5.58146
1025.932	1.36759
1026.093	7.41071
1026.253	-1.76673
1026.414	4.38456
1026.575	-1.21574
1026.736	3.64191
1026.897	-5.05925
1027.058	10.54937
1027.218	-3.9245
1027.379	7.37535
1027.54	-3.0279
1027.7	8.48372
1027.861	-0.18456
1028.022	9.18815
1028.182	-3.12178
1028.343	5.75555
1028.504	-0.71783
1028.664	8.59251
1028.825	-2.88233
1028.985	7.38759
1029.146	-4.41431
1029.306	1.0452
1029.466	-0.79946
1029.627	11.26463
1029.787	0.35687
1029.948	3.24746
1030.108	-2.08916
1030.268	5.81267
1030.429	-1.00624
1030.589	7.60654
1030.749	-0.42943
1030.909	5.83579
1031.07	-3.78573
1031.23	9.29694
1031.39	-3.49321
1031.55	5.46313
1031.71	-5.60759
1031.87	7.56711
1032.03	-3.61021
1032.19	8.59659
1032.35	-3.98573
1032.51	9.43293
1032.67	-1.8606
1032.83	5.39649
1032.99	-1.80482
1033.15	7.56439
1033.31	-3.16396
1033.47	4.78036
1033.63	0.66431
1033.79	6.42198
1033.949	-6.95195
1034.109	6.02892
1034.269	-0.96815
1034.429	7.26791
1034.588	0.49018
1034.748	6.09829
1034.908	-7.46903
1035.067	11.3639
1035.227	-7.56837
1035.387	4.07853
1035.546	-3.95444
1035.706	6.12413
1035.865	-2.17215
1036.025	6.99183
1036.184	0.24532
1036.344	7.96014
1036.503	-1.81298
1036.662	5.33936
1036.822	-3.72178
1036.981	5.25368
1037.14	-0.05396
1037.3	9.45605
1037.459	-2.15854
1037.618	5.14895
1037.778	-0.52057
1037.937	7.33047
1038.096	-3.22926
1038.255	2.88428
1038.414	-2.09188
1038.573	5.43457
1038.733	-4.54221
1038.892	8.73394
1039.051	-2.29323
1039.21	10.97772
1039.369	-1.54497
1039.528	8.99777
1039.687	-3.70817
1039.846	6.70622
1040.005	-1.39668
1040.164	7.29511
1040.322	-2.12317
1040.481	4.34784
1040.64	-0.48384
1040.799	6.52534
1040.958	-0.10566
1041.116	5.49985
1041.275	-1.06746
1041.434	7.96422
1041.593	-0.37365
1041.751	10.06799
1041.91	2.23953
1042.069	4.70555
1042.227	-1.95719
1042.386	6.78239
1042.544	0.8017
1042.703	7.78198
1042.861	-3.11226
1043.02	7.18359
1043.178	-2.76124
1043.337	9.71171
1043.495	-0.06757
1043.653	7.8255
1043.812	-3.47688
1043.97	3.77113
1044.129	-1.87284
1044.287	4.29207
1044.445	-1.48375
1044.603	5.50802
1044.762	-2.59798
1044.92	7.8527
1045.078	1.63829
1045.236	4.82932
1045.394	-1.27696
1045.552	7.74798
