Data from deut_57ms_70_SR4014911__0__16-22-06-127.txt Node

Date: Sun Jul 13 16:22:06 EDT 2025
User: cryst
Spectrometer: SR401491
Trigger mode: 0
Integration Time (sec): 5.700000E-2
Scans to average: 70
Electric dark correction enabled: true
Nonlinearity correction enabled: true
Boxcar width: 0
XAxis mode: Wavelengths
Number of Pixels in Spectrum: 3648
>>>>>Begin Spectral Data<<<<<
344.912	-102.56726
345.129	-87.6498
345.347	-96.05931
345.565	-65.11838
345.783	48.22569
346.001	23.05767
346.219	8.73187
346.437	31.91033
346.654	50.16548
346.872	29.42567
347.09	-10.22056
347.308	52.58615
347.526	38.6488
347.743	8.04802
347.961	69.89688
348.179	38.7109
348.397	39.47159
348.614	67.27617
348.832	73.83523
349.05	86.14274
349.268	94.293
349.485	101.52703
349.703	67.67937
349.921	104.84133
350.138	102.76607
350.356	104.50063
350.574	51.73274
350.791	86.73162
351.009	94.12258
351.227	86.31321
351.444	79.07513
351.662	102.20851
351.879	67.27617
352.097	93.6733
352.314	74.61043
352.532	76.56382
352.75	74.19182
352.967	103.55593
353.185	103.463
353.402	84.91844
353.62	69.35415
353.837	111.84033
354.055	98.16584
354.272	125.39966
354.49	125.6163
354.707	124.79613
354.925	64.14339
355.142	106.45188
355.359	116.8562
355.577	117.30511
355.794	119.41023
356.012	140.05045
356.229	103.7108
356.446	91.16334
356.664	104.59355
356.881	128.09215
357.099	83.86457
357.316	96.50834
357.533	106.59125
357.751	83.36861
357.968	154.4616
358.185	116.39181
358.402	98.72349
358.62	133.15147
358.837	120.58655
359.054	94.63383
359.272	86.09625
359.489	104.91877
359.706	108.9914
359.923	121.09731
360.141	105.84794
360.358	110.7875
360.575	101.41861
360.792	93.4409
361.009	90.88444
361.226	103.72629
361.444	149.17426
361.661	113.91491
361.878	107.81458
362.095	93.34794
362.312	118.18742
362.529	118.01715
362.746	112.78474
362.963	70.62568
363.181	85.10441
363.398	116.50017
363.615	136.74039
363.832	94.74228
364.049	88.65316
364.266	140.76191
364.483	110.72556
364.7	80.14469
364.917	75.41661
365.134	109.42495
365.351	103.21521
365.568	119.19353
365.785	85.50735
366.002	85.38337
366.219	81.5707
366.436	130.87721
366.652	140.00405
366.869	118.17194
367.086	126.73046
367.303	73.0135
367.52	84.59298
367.737	127.27205
367.954	118.83753
368.171	98.56859
368.387	163.19433
368.604	105.12009
368.821	114.89021
369.038	96.61677
369.255	112.70733
369.471	93.36344
369.688	120.69489
369.905	131.20212
370.122	122.73785
370.339	109.48688
370.555	78.22255
370.772	82.51617
370.989	164.10608
371.205	94.47891
371.422	118.69822
371.639	88.04882
371.855	146.00446
372.072	108.75913
372.289	90.89994
372.505	145.78798
372.722	90.09422
372.939	111.87129
373.155	127.90647
373.372	104.91877
373.589	115.88097
373.805	93.8747
374.022	86.06525
374.238	97.93349
374.455	106.63771
374.671	126.5293
374.888	113.38854
375.104	73.66468
375.321	75.09104
375.537	102.39436
375.754	115.81904
375.97	117.27415
376.187	153.31764
376.403	96.04359
376.62	101.12433
376.836	88.8546
377.053	101.32568
377.269	102.62668
377.486	90.49708
377.702	72.17623
377.918	74.26934
378.135	104.67098
378.351	118.35769
378.568	108.92946
378.784	109.39398
379	99.09525
379.217	98.87839
379.433	95.14507
379.649	135.73492
379.865	101.6974
380.082	132.81112
380.298	85.30588
380.514	145.5251
380.731	108.60429
380.947	78.7186
381.163	116.88716
381.379	101.49605
381.596	111.14361
381.812	137.11163
382.028	113.31113
382.244	111.29843
382.46	103.66434
382.676	151.86444
382.893	121.94854
383.109	90.28015
383.325	97.65466
383.541	138.76669
383.757	77.7885
383.973	105.63113
384.189	144.55088
384.405	101.01591
384.622	115.33915
384.838	123.34142
385.054	114.31742
385.27	131.75909
385.486	104.40771
385.702	95.4704
385.918	107.93846
386.134	113.18727
386.35	130.78438
386.566	134.1725
386.782	131.3723
386.998	134.42002
387.214	113.12535
387.43	111.22102
387.646	159.16061
387.861	132.45529
388.077	129.50019
388.293	121.43781
388.509	141.31869
388.725	125.6782
388.941	120.36987
389.157	96.07458
389.373	107.64424
389.588	134.14156
389.804	116.28345
390.02	143.96323
390.236	90.51257
390.452	96.50834
390.668	103.47849
390.883	150.73583
391.099	122.62952
391.315	128.2933
391.531	99.65287
391.746	115.6178
391.962	117.87784
392.178	123.9295
392.393	116.79428
392.609	162.80798
392.825	117.42895
393.041	98.04192
393.256	127.597
393.472	135.93602
393.687	135.13162
393.903	146.19002
394.119	130.49041
394.334	117.67661
394.55	164.78602
394.766	123.01642
394.981	147.4889
395.197	141.65893
395.412	165.97586
395.628	156.78029
395.843	175.43099
396.059	222.48928
396.274	157.05852
396.49	191.02806
396.705	146.2828
396.921	106.01828
397.136	149.32888
397.352	136.07524
397.567	110.24558
397.783	127.76721
397.998	137.37459
398.214	117.73853
398.429	95.45491
398.644	176.11065
398.86	126.5293
399.075	147.99916
399.29	118.91492
399.506	115.37011
399.721	127.08636
399.936	126.62214
400.152	109.36301
400.367	130.25833
400.582	125.18301
400.798	142.03011
401.013	107.41197
401.228	141.53521
401.444	138.68935
401.659	122.30451
401.874	171.73893
402.089	128.83486
402.304	140.9939
402.52	124.34735
402.735	100.86102
402.95	104.73293
403.165	148.54033
403.38	161.91164
403.596	113.68268
403.811	153.45677
404.026	178.73644
404.241	112.81571
404.456	126.59119
404.671	165.80589
404.886	163.45704
405.101	116.87168
405.316	142.10744
405.532	175.24563
405.747	145.41685
405.962	133.47635
406.177	147.1178
406.392	113.38854
406.607	174.07163
406.822	153.45677
407.037	166.16129
407.252	189.14452
407.467	186.95204
407.682	173.23744
407.896	218.81881
408.111	191.92347
408.326	210.50451
408.541	270.76286
408.756	296.61513
408.971	319.632
409.186	300.13726
409.401	272.34851
409.616	156.61026
409.83	133.05865
410.045	121.99498
410.26	112.28932
410.475	95.33098
410.69	139.24617
410.905	131.8055
411.119	86.99507
411.334	104.43868
411.549	120.47821
411.764	158.92877
411.978	147.19511
412.193	134.51284
412.408	120.19961
412.623	95.06761
412.837	147.16419
413.052	154.04422
413.267	126.26623
413.481	113.54335
413.696	93.79724
413.911	105.21301
414.125	116.19057
414.34	95.14507
414.554	112.95505
414.769	143.87045
414.984	119.89005
415.198	101.6974
415.413	99.85423
415.627	137.88504
415.842	130.76891
416.056	126.9471
416.271	100.42733
416.485	131.46513
416.7	124.95088
416.914	122.67595
417.129	91.45773
417.343	140.01952
417.558	113.69817
417.772	144.73644
417.987	127.44226
418.201	131.49608
418.415	93.90569
418.63	130.04172
418.844	115.18435
419.059	151.27695
419.273	130.47494
419.487	165.14143
419.702	137.34366
419.916	176.57404
420.13	127.99931
420.345	126.65309
420.559	110.53977
420.773	115.81904
420.988	128.98959
421.202	160.99981
421.416	124.91993
421.63	139.71018
421.845	122.02593
422.059	130.444
422.273	106.62222
422.487	124.99731
422.701	154.12151
422.916	175.1375
423.13	108.9914
423.344	119.25545
423.558	108.71268
423.772	110.94233
423.986	129.56208
424.201	116.31441
424.415	160.08796
424.629	134.94599
424.843	128.77297
425.057	166.7021
425.271	87.52195
425.485	97.96447
425.699	100.76809
425.913	156.74938
426.127	126.60667
426.341	118.82205
426.555	120.83419
426.769	154.21426
426.983	165.38867
427.197	147.81361
427.411	132.30058
427.625	171.30635
427.839	123.63546
428.053	137.15804
428.267	111.46874
428.481	147.99916
428.695	101.09335
428.908	93.79724
429.122	143.63848
429.336	144.92201
429.55	130.9391
429.764	146.91678
429.978	192.66448
430.191	206.77077
430.405	246.38202
430.619	257.78183
430.833	345.70209
431.047	425.68991
431.26	590.42013
431.474	715.67881
431.688	783.47926
431.901	840.18523
432.115	1018.7786
432.329	1148.04193
432.543	1255.65014
432.756	1510.84284
432.97	1552.78437
433.184	1057.02457
433.397	470.52912
433.611	188.09462
433.824	164.4615
434.038	154.32247
434.252	139.24617
434.465	127.17921
434.679	112.80023
434.892	139.02963
435.106	87.63042
435.319	121.45328
435.533	159.57792
435.747	141.47335
435.96	98.87839
436.174	166.19219
436.387	147.93731
436.601	149.18972
436.814	155.29635
437.027	108.52687
437.241	143.31372
437.454	111.91774
437.668	161.54073
437.881	147.17965
438.095	108.7901
438.308	143.03535
438.521	177.06832
438.735	144.81376
438.948	136.75586
439.161	139.0451
439.375	129.45377
439.588	144.45809
439.801	148.33932
440.015	149.45257
440.228	150.31839
440.441	173.77812
440.654	199.14746
440.868	191.47577
441.081	108.24815
441.294	170.85832
441.507	137.48287
441.721	119.6424
441.934	143.82405
442.147	123.85213
442.36	132.59453
442.573	141.02483
442.786	115.55588
443	166.77936
443.213	135.54929
443.426	150.64307
443.639	172.92848
443.852	157.72317
444.065	174.42692
444.278	159.20698
444.491	160.27342
444.704	134.71395
444.917	171.10551
445.13	152.82294
445.343	137.62208
445.556	207.98969
445.769	189.42243
445.982	153.98238
446.195	182.35037
446.408	169.15883
446.621	191.21332
446.834	157.02761
447.047	131.86739
447.26	142.8807
447.473	152.90024
447.686	167.07294
447.899	144.5818
448.111	172.09425
448.324	174.13342
448.537	146.17456
448.75	140.97843
448.963	140.73097
449.176	174.96758
449.388	170.62658
449.601	173.1293
449.814	132.51717
450.027	136.80227
450.239	171.01282
450.452	143.36011
450.665	131.21759
450.878	140.54538
451.09	164.10608
451.303	144.02509
451.516	140.14325
451.728	162.91616
451.941	120.35439
452.154	169.66869
452.366	179.6168
452.579	123.88308
452.792	194.56322
453.004	167.39742
453.217	151.8026
453.429	149.5608
453.642	134.89958
453.854	171.13641
454.067	190.76561
454.28	202.60444
454.492	110.02881
454.705	126.11149
454.917	138.38
455.13	192.78798
455.342	172.85123
455.555	119.00779
455.767	202.57357
455.979	145.61788
456.192	168.23179
456.404	129.46924
456.617	163.17887
456.829	136.7868
457.041	175.09116
457.254	153.00846
457.466	140.05045
457.679	140.46805
457.891	187.35349
458.103	153.28672
458.315	151.91082
458.528	125.97222
458.74	153.05483
458.952	160.02613
459.165	145.84983
459.377	125.81747
459.589	114.06972
459.801	152.77656
460.014	167.19656
460.226	154.16789
460.438	139.92672
460.65	125.72463
460.862	156.11562
461.075	141.96825
461.287	141.21042
461.499	92.10847
461.711	110.47783
461.923	135.70398
462.135	164.80147
462.347	129.28357
462.559	149.08149
462.771	160.90708
462.983	125.81747
463.196	154.21426
463.408	163.36432
463.62	149.88548
463.832	167.93822
464.044	155.43547
464.256	181.87163
464.468	135.56476
464.68	151.69438
464.891	137.83863
465.103	124.93541
465.315	172.89758
465.527	136.92601
465.739	106.04925
465.951	136.07524
466.163	139.16884
466.375	132.16134
466.587	171.36815
466.799	141.89092
467.01	112.62992
467.222	137.31272
467.434	117.97072
467.646	131.97569
467.858	132.71829
468.069	143.43744
468.281	103.40105
468.493	106.65319
468.705	114.4103
468.916	128.98959
469.128	100.65966
469.34	120.1377
469.551	116.46921
469.763	80.6097
469.975	114.54963
470.186	133.136
470.398	109.59527
470.61	118.72918
470.821	91.16334
471.033	118.26482
471.245	150.64307
471.456	104.79488
471.668	129.0979
471.879	106.28154
472.091	148.38571
472.302	140.82377
472.514	129.36094
472.725	137.17351
472.937	114.67348
473.148	112.22739
473.36	119.13162
473.571	146.11271
473.783	115.50944
473.994	126.57572
474.206	105.27495
474.417	98.0729
474.629	131.49608
474.84	147.4889
475.051	155.96104
475.263	110.40042
475.474	115.72616
475.685	143.85498
475.897	121.20565
476.108	164.35333
476.319	106.23508
476.531	128.46351
476.742	155.28089
476.953	159.54701
477.165	189.71577
477.376	122.13427
477.587	119.90553
477.798	138.70482
478.01	107.55133
478.221	141.16403
478.432	141.90639
478.643	126.56025
478.854	126.32813
479.065	213.58988
479.277	150.22562
479.488	165.68227
479.699	164.13699
479.91	160.16523
480.121	160.39706
480.332	162.73071
480.543	155.3891
480.754	119.27093
480.965	128.9277
481.176	160.64435
481.387	191.67646
481.598	145.8189
481.809	188.26446
482.02	274.28813
482.231	557.36009
482.442	1222.07297
482.653	2534.63206
482.864	4147.0029
483.075	6413.2577
483.286	9024.62757
483.497	12136.03967
483.708	14539.90166
483.919	16591.13097
484.13	18464.70814
484.341	21071.71189
484.551	24711.52456
484.762	27929.37232
484.973	28922.37064
485.184	19795.55388
485.395	6493.0826
485.605	1841.70732
485.816	786.69008
486.027	390.96681
486.238	284.76904
486.449	305.15055
486.659	249.75622
486.87	221.48689
487.081	212.34035
487.291	201.75566
487.502	193.5444
487.713	160.53616
487.923	185.23808
488.134	145.03026
488.345	230.16797
488.555	186.24177
488.766	151.36971
488.976	189.1754
489.187	193.80683
489.398	161.71073
489.608	197.57316
489.819	155.49731
490.029	143.32918
490.24	191.33683
490.45	185.09911
490.661	180.52802
490.871	161.57164
491.082	129.79417
491.292	147.87546
491.503	176.49681
491.713	184.21892
491.924	168.64896
492.134	162.25163
492.344	176.58949
492.555	171.95521
492.765	193.5444
492.975	181.56276
493.186	203.20628
493.396	206.29244
493.607	132.23869
493.817	185.77853
494.027	168.23179
494.237	159.87158
494.448	157.47586
494.658	177.14555
494.868	147.30335
495.078	179.12257
495.289	212.32492
495.499	170.47208
495.709	138.22533
495.919	161.57164
496.129	145.38593
496.34	139.94218
496.55	120.18413
496.76	176.92931
496.97	181.06856
497.18	161.64891
497.39	156.05379
497.6	174.72042
497.81	178.27309
498.021	175.04482
498.231	194.19274
498.441	164.77056
498.651	145.50963
498.861	125.32228
499.071	164.39969
499.281	183.61668
499.491	157.84682
499.701	175.64725
499.911	178.64377
500.121	175.23018
500.331	176.92931
500.54	219.65164
500.75	174.56595
500.96	174.65863
501.17	145.40139
501.38	164.83237
501.59	176.37324
501.8	159.17607
502.01	113.77557
502.219	159.31517
502.429	173.87081
502.639	203.00567
502.849	177.30001
503.059	151.01412
503.268	174.11797
503.478	152.68381
503.688	164.55422
503.898	164.60058
504.107	139.1379
504.317	211.38388
504.527	166.40852
504.736	174.14887
504.946	148.07647
505.156	189.97823
505.365	145.8189
505.575	169.40603
505.785	151.24603
505.994	191.19788
506.204	144.5818
506.413	157.13581
506.623	123.69737
506.832	156.82666
507.042	156.98124
507.251	186.07191
507.461	159.70157
507.67	159.6552
507.88	142.35488
508.089	159.71702
508.299	157.72317
508.508	163.85883
508.718	111.45326
508.927	140.73097
509.137	189.15996
509.346	172.99027
509.555	137.4674
509.765	150.38023
509.974	260.56947
510.184	173.20654
510.393	134.45096
510.602	153.22489
510.812	191.73822
511.021	166.14583
511.23	211.49187
511.439	132.48623
511.649	147.68991
511.858	160.27342
512.067	156.79575
512.276	179.41602
512.486	308.07202
512.695	174.42692
512.904	131.27948
513.113	156.96578
513.322	159.77884
513.531	163.37977
513.741	173.96349
513.95	142.83431
514.159	168.32449
514.368	138.45734
514.577	142.27756
514.786	146.39104
514.995	148.91141
515.204	167.1193
515.413	132.11493
515.622	138.2872
515.831	150.34931
516.04	164.44605
516.249	134.68301
516.458	145.989
516.667	162.01982
516.876	179.87936
517.085	139.92672
517.294	174.62774
517.503	160.01068
517.712	158.89786
517.921	151.02958
518.13	174.95213
518.339	187.53878
518.547	237.99872
518.756	134.74489
518.965	158.83604
519.174	154.87898
519.383	162.56072
519.591	136.61664
519.8	126.99352
520.009	153.39494
520.218	140.82377
520.426	136.32274
520.635	179.1689
520.844	160.33524
521.053	160.7989
521.261	167.64465
521.47	179.24613
521.679	147.07141
521.887	165.12598
522.096	160.62889
522.304	137.77676
522.513	130.62966
522.722	140.88564
522.93	182.08783
523.139	155.42002
523.347	122.39737
523.556	128.23141
523.764	131.0474
523.973	154.18334
524.182	126.21981
524.39	184.88293
524.598	127.03994
524.807	127.56605
525.015	141.48881
525.224	157.16672
525.432	145.71066
525.641	122.79976
525.849	138.2408
526.057	142.97349
526.266	182.5048
526.474	134.85317
526.683	131.41872
526.891	173.29923
527.099	119.11614
527.308	156.88849
527.516	121.20565
527.724	156.25474
527.932	128.55635
528.141	177.25367
528.349	196.41553
528.557	155.14177
528.765	126.45193
528.974	117.49086
529.182	146.37558
529.39	152.32823
529.598	114.7354
529.806	112.05708
530.015	162.80798
530.223	135.22444
530.431	124.95088
530.639	119.71979
530.847	127.93742
531.055	145.5251
531.263	141.05576
531.471	104.82585
531.679	92.72822
531.887	153.85871
532.095	170.31759
532.303	166.88752
532.511	145.5251
532.719	128.03026
532.927	135.53382
533.135	149.46803
533.343	192.00066
533.551	163.56521
533.759	133.15147
533.967	173.51551
534.175	154.15243
534.383	183.57035
534.591	168.72621
534.798	175.84806
535.006	124.87351
535.214	134.07968
535.422	118.9304
535.63	164.80147
535.837	122.59856
536.045	131.97569
536.253	167.39742
536.461	144.5818
536.668	151.36971
536.876	161.18527
537.084	176.71306
537.292	158.43417
537.499	180.68246
537.707	155.52822
537.915	162.43709
538.122	193.68333
538.33	171.33725
538.538	153.79687
538.745	158.61965
538.953	187.21453
539.16	164.94054
539.368	150.93682
539.575	145.83437
539.783	153.36402
539.99	190.50315
540.198	155.83738
540.406	160.69071
540.613	148.29294
540.82	123.55809
541.028	162.298
541.235	163.51885
541.443	202.07974
541.65	221.10134
541.858	181.03767
542.065	156.703
542.272	145.57149
542.48	207.75825
542.687	136.91055
542.895	184.29613
543.102	146.56114
543.309	165.12598
543.516	174.27245
543.724	164.89419
543.931	150.56576
544.138	176.49681
544.346	158.23324
544.553	169.11248
544.76	161.03072
544.967	147.93731
545.174	167.67555
545.382	155.46639
545.589	170.36393
545.796	177.59348
546.003	122.28903
546.21	155.12631
546.417	219.11185
546.624	157.27492
546.832	160.18069
547.039	154.75531
547.246	185.56235
547.453	161.97346
547.66	141.11763
547.867	169.17428
548.074	152.7611
548.281	147.45798
548.488	154.09059
548.695	151.74076
548.902	166.94933
549.109	138.96777
549.316	127.62795
549.523	142.67965
549.73	138.3336
549.936	151.49339
550.143	158.35689
550.35	128.74202
550.557	135.17803
550.764	122.27356
550.971	163.92064
551.178	130.01078
551.384	162.32891
551.591	177.28456
551.798	192.2631
552.005	143.39104
552.211	173.05206
552.418	142.84977
552.625	116.12865
552.832	163.42613
553.038	159.63974
553.245	164.18335
553.452	178.79822
553.658	123.10928
553.865	143.57662
554.072	164.01336
554.278	153.48769
554.485	205.58265
554.691	199.50244
554.898	147.10234
555.105	189.31435
555.311	154.53889
555.518	191.12069
555.724	174.75132
555.931	120.5556
556.137	115.97385
556.344	158.57328
556.55	167.56739
556.757	169.77684
556.963	137.23538
557.17	159.17607
557.376	170.65748
557.582	204.96543
557.789	145.94261
557.995	148.6331
558.202	147.16419
558.408	168.71076
558.614	122.72237
558.821	163.75066
559.027	168.479
559.233	166.03767
559.439	209.7794
559.646	166.08402
559.852	182.69011
560.058	173.80902
560.264	168.97342
560.471	167.58284
560.677	184.29613
560.883	194.53235
561.089	186.24177
561.295	144.05602
561.502	169.45238
561.708	161.24709
561.914	182.38125
562.12	180.75968
562.326	177.65526
562.532	184.26525
562.738	190.53403
562.944	162.68435
563.15	156.74938
563.356	134.94599
563.562	150.79767
563.768	176.40413
563.974	134.59019
564.18	184.51232
564.386	162.60708
564.592	149.54533
564.798	143.08175
565.004	198.69987
565.21	128.24688
565.416	183.3696
565.622	180.74424
565.828	172.03246
566.034	194.43973
566.239	170.31759
566.445	209.5017
566.651	202.35752
566.857	223.39911
567.063	197.44968
567.268	220.16059
567.474	230.49173
567.68	231.32422
567.886	238.43027
568.091	258.95236
568.297	256.84229
568.503	254.68584
568.708	271.17852
568.914	272.41009
569.12	294.20015
569.325	265.29707
569.531	265.06609
569.737	219.7596
569.942	238.73852
570.148	285.4307
570.353	347.40652
570.559	312.5459
570.765	288.43107
570.97	312.91485
571.176	351.10679
571.381	262.01709
571.587	230.46089
571.792	253.19164
571.998	255.57925
572.203	254.48559
572.408	329.9276
572.614	358.12222
572.819	331.86339
573.025	299.46055
573.23	310.25524
573.435	290.64653
573.641	307.58
573.846	271.68655
574.051	293.5233
574.257	319.17091
574.462	330.54215
574.667	294.6001
574.873	292.16957
575.078	349.14156
575.283	332.75442
575.488	346.89981
575.694	389.7862
575.899	297.07657
576.104	323.96581
576.309	360.65473
576.514	366.13344
576.719	450.30604
576.925	502.50412
577.13	438.45971
577.335	399.29112
577.54	357.20125
577.745	314.06779
577.95	339.35952
578.155	315.54348
578.36	281.15271
578.565	297.52262
578.77	386.10606
578.975	426.54752
579.18	358.06082
579.385	379.02053
579.59	436.20931
579.795	348.40456
580	293.03104
580.205	312.91485
580.41	438.78118
580.615	661.59234
580.82	699.02631
581.024	588.15016
581.229	545.43238
581.434	514.00525
581.639	400.8239
581.844	323.27429
582.049	302.38258
582.253	369.12558
582.458	309.50189
582.663	246.1663
582.868	258.47492
583.072	275.6581
583.277	317.14207
583.482	373.40612
583.686	406.90823
583.891	349.06479
584.096	362.37365
584.3	428.85989
584.505	344.88823
584.71	385.40065
584.914	398.55537
585.119	370.76729
585.323	338.85267
585.528	275.87359
585.733	291.95419
585.937	321.6453
586.142	263.26445
586.346	363.03357
586.551	323.6431
586.755	350.98397
586.959	425.00074
587.164	417.67925
587.368	339.00626
587.573	396.08738
587.777	555.89606
587.982	1914.43827
588.186	4440.97788
588.39	1954.21579
588.595	1202.60829
588.799	2446.46613
589.003	1041.5684
589.208	419.16513
589.412	339.98923
589.616	321.15351
589.82	317.81836
590.025	228.56456
590.229	252.08249
590.433	236.50364
590.637	257.96665
590.842	326.97759
591.046	353.87018
591.25	305.71949
591.454	225.09533
591.658	265.0045
591.862	384.7719
592.067	578.19998
592.271	465.3293
592.475	392.36202
592.679	404.97732
592.883	357.1245
593.087	363.90831
593.291	314.6673
593.495	300.42947
593.699	264.15759
593.903	355.58949
594.107	451.17827
594.311	435.8725
594.515	402.54051
594.719	351.65949
594.923	332.61616
595.127	365.88791
595.33	341.07967
595.534	272.62561
595.738	350.4159
595.942	333.13848
596.146	290.98499
596.35	324.01191
596.553	305.48884
596.757	323.78141
596.961	418.32263
597.165	327.02368
597.369	268.17636
597.572	279.04425
597.776	258.45951
597.98	360.8696
598.183	429.30397
598.387	379.29662
598.591	319.77032
598.794	299.13757
598.998	322.44444
599.202	370.21495
599.405	403.61334
599.609	359.82593
599.812	414.33957
600.016	391.62609
600.22	429.28866
600.423	409.68179
600.627	397.06847
600.83	314.54432
601.034	400.88521
601.237	443.31206
601.441	285.0614
601.644	318.40243
601.847	405.45239
602.051	325.22588
602.254	338.68371
602.458	377.0418
602.661	437.11255
602.864	345.56389
603.068	327.99169
603.271	273.64161
603.475	288.8311
603.678	303.50518
603.881	301.45987
604.084	255.97973
604.288	272.27154
604.491	352.074
604.694	350.3852
604.897	264.9737
605.101	299.79891
605.304	330.25024
605.507	297.32267
605.71	239.74031
605.913	326.14784
606.116	331.98629
606.32	329.22086
606.523	290.04653
606.726	284.569
606.929	311.99247
607.132	327.46928
607.335	343.55222
607.538	285.09218
607.741	267.45271
607.944	218.32526
608.147	228.88833
608.35	265.0507
608.553	255.31739
608.756	274.07262
608.959	289.90807
609.162	345.19535
609.365	326.54735
609.568	310.25524
609.771	239.81736
609.973	299.70663
610.176	297.64567
610.379	252.96057
610.582	245.2572
610.785	303.0746
610.988	280.15237
611.19	235.39385
611.393	240.06395
611.596	228.64165
611.799	234.63854
612.001	279.19816
612.204	233.26661
612.407	248.41583
612.609	258.45951
612.812	296.39979
613.015	288.81571
613.217	295.8922
613.42	237.3822
613.623	260.16905
613.825	281.69134
614.028	319.64736
614.23	254.43938
614.433	237.10477
614.636	251.2506
614.838	301.55214
615.041	315.62034
615.243	214.94733
615.446	192.95779
615.648	204.25561
615.85	221.88785
616.053	166.03767
616.255	230.07547
616.458	222.52012
616.66	204.13216
616.863	180.12647
617.065	206.7862
617.267	234.43815
617.47	217.49239
617.672	211.32217
617.874	189.62314
618.077	201.94085
618.279	205.98384
618.481	241.34309
618.683	159.80976
618.886	173.29923
619.088	274.7961
619.29	248.86263
619.492	181.34655
619.694	197.41881
619.897	235.93334
620.099	179.50869
620.301	133.399
620.503	141.98371
620.705	183.64756
620.907	184.77483
621.109	160.11887
621.311	191.96978
621.513	221.87243
621.715	211.46101
621.917	226.54475
622.119	230.39922
622.321	200.61364
622.523	227.65489
622.725	178.62833
622.927	184.82116
623.129	190.79648
623.331	177.54714
623.533	141.87545
623.735	203.14455
623.937	198.93138
624.139	165.88315
624.341	199.22463
624.542	160.3507
624.744	150.42662
624.946	184.38879
625.148	164.75511
625.35	190.14806
625.551	152.54467
625.753	132.85753
625.955	153.68866
626.156	183.38504
626.358	195.24241
626.56	163.76611
626.762	200.58277
626.963	180.85234
627.165	155.17269
627.366	194.62497
627.568	189.56138
627.77	167.07294
627.971	210.18053
628.173	177.82517
628.374	149.48349
628.576	166.03767
628.777	214.14521
628.979	147.87546
629.18	126.15791
629.382	135.95149
629.583	187.9711
629.785	182.6129
629.986	127.55058
630.188	146.36012
630.389	136.86414
630.591	176.04886
630.792	124.05331
630.993	117.56826
631.195	123.23309
631.396	135.41007
631.597	129.73228
631.799	139.49365
632	173.39192
632.201	141.79813
632.402	168.58716
632.604	172.83578
632.805	129.97983
633.006	160.14978
633.207	172.20239
633.409	190.59578
633.61	129.74775
633.811	139.69472
634.012	178.59744
634.213	164.66239
634.414	148.52487
634.615	150.53484
634.816	179.78669
635.017	173.79357
635.219	173.70088
635.42	170.67293
635.621	145.32407
635.822	190.07087
636.023	169.99314
636.224	157.69226
636.425	139.64832
636.626	145.49417
636.826	132.96582
637.027	167.44378
637.228	134.88411
637.429	124.67233
637.63	140.63818
637.831	116.40729
638.032	121.96402
638.233	121.9795
638.433	121.60805
638.634	149.09695
638.835	128.40162
639.036	154.63164
639.237	97.12798
639.437	93.14653
639.638	120.10674
639.839	133.24429
640.039	91.33378
640.24	153.45677
640.441	125.8639
640.641	104.71744
640.842	125.9258
641.043	101.18628
641.243	99.62189
641.444	114.34838
641.645	140.49898
641.845	121.40685
642.046	111.2365
642.246	114.61156
642.447	82.29918
642.647	125.22943
642.848	141.36508
643.048	154.35339
643.249	118.66727
643.449	118.55891
643.65	98.8629
643.85	93.39442
644.05	147.31881
644.251	101.51154
644.451	119.5031
644.651	126.42098
644.852	105.56919
645.052	114.0852
645.252	121.60805
645.453	78.84261
645.653	102.14655
645.853	97.79408
646.054	88.4982
646.254	99.32759
646.454	75.69566
646.654	91.67465
646.854	89.30397
647.055	137.99331
647.255	92.27891
647.455	150.17924
647.655	121.11278
647.855	151.13781
648.055	112.36673
648.255	105.64662
648.455	118.69822
648.655	116.45373
648.856	127.19468
649.056	117.33607
649.256	128.20046
649.456	92.43384
649.656	104.48514
649.856	125.6163
650.055	97.51525
650.255	158.10959
650.455	151.83352
650.655	148.10739
650.855	176.23422
651.055	244.07069
651.255	245.64242
651.455	271.31708
651.655	192.06241
651.854	211.07533
652.054	155.37364
652.254	188.40342
652.454	237.7367
652.654	224.38602
652.853	347.45258
653.053	444.50589
653.253	880.91399
653.452	2560.73664
653.652	9400.34028
653.852	23913.02161
654.051	47950.93012
654.251	63410.95452
654.451	63410.95452
654.65	63410.95452
654.85	63410.95452
655.049	63410.95452
655.249	63410.95452
655.449	63410.95452
655.648	63410.95452
655.848	63410.95452
656.047	63410.95452
656.247	63410.95452
656.446	63410.95452
656.645	63410.95452
656.845	63410.95452
657.044	63410.95452
657.244	39011.34767
657.443	4339.40476
657.643	3256.5718
657.842	2294.69407
658.041	2010.00056
658.241	1645.39208
658.44	1480.67823
658.639	1238.62559
658.839	1213.30005
659.038	1046.00443
659.237	998.21833
659.436	889.77897
659.636	869.6748
659.835	790.53661
660.034	768.75413
660.233	702.3514
660.432	679.12958
660.631	636.1209
660.831	655.40498
661.03	581.36974
661.229	608.13264
661.428	549.70369
661.627	541.46565
661.826	533.04233
662.025	494.57458
662.224	464.51866
662.423	457.61971
662.622	417.32691
662.821	438.35255
663.02	455.998
663.219	403.39878
663.418	426.70066
663.617	417.12777
663.816	397.98821
664.015	350.12419
664.214	357.10915
664.412	340.15817
664.611	364.09247
664.81	350.17025
665.009	368.81871
665.208	339.39024
665.406	285.59996
665.605	318.95574
665.804	290.03115
666.003	308.62552
666.201	269.06934
666.4	260.10745
666.599	280.96803
666.798	276.99722
666.996	276.11987
667.195	244.17856
667.394	251.31222
667.592	296.24597
667.791	261.35489
667.989	264.34237
668.188	269.20791
668.386	300.46023
668.585	249.60216
668.783	275.84281
668.982	270.68588
669.18	279.90612
669.379	232.52667
669.577	206.40045
669.776	207.8354
669.974	253.93105
670.173	238.92347
670.371	224.78694
670.57	204.40992
670.768	227.88617
670.966	248.49287
671.165	241.99034
671.363	219.12727
671.561	236.14913
671.76	261.01609
671.958	271.97905
672.156	233.94488
672.354	198.6227
672.553	198.97768
672.751	163.61158
672.949	199.84197
673.147	226.59101
673.345	180.80601
673.543	223.18322
673.742	167.1502
673.94	179.57047
674.138	190.42596
674.336	187.22997
674.534	180.49713
674.732	221.62568
674.93	177.25367
675.128	143.32918
675.326	174.39603
675.524	151.53977
675.722	203.59207
675.92	160.73708
676.118	161.03072
676.316	171.4454
676.514	175.87895
676.712	137.97784
676.91	169.49873
677.108	179.41602
677.305	202.85135
677.503	180.4508
677.701	176.01797
677.899	145.29314
678.097	172.72765
678.295	162.99343
678.492	137.48287
678.69	182.44303
678.888	158.18687
679.085	196.90946
679.283	160.7989
679.481	127.5351
679.679	142.72605
679.876	151.27695
680.074	176.07976
680.271	140.73097
680.469	147.76723
680.667	169.12793
680.864	154.24518
681.062	171.16731
681.259	162.43709
681.457	113.32661
681.654	155.62097
681.852	130.02625
682.049	143.79312
682.247	136.67852
682.444	119.33284
682.642	154.05967
682.839	117.5373
683.037	147.19511
683.234	180.28091
683.431	146.29827
683.629	117.07292
683.826	111.70098
684.023	157.58406
684.221	186.27265
684.418	180.86779
684.615	179.81758
684.813	168.15453
685.01	181.62453
685.207	154.41522
685.404	108.20169
685.601	167.13475
685.799	180.65157
685.996	150.58122
686.193	138.44187
686.39	111.97967
686.587	141.27229
686.784	152.1891
686.981	150.44208
687.179	136.35368
687.376	106.54479
687.573	137.97784
687.77	142.60233
687.967	112.32028
688.164	126.26623
688.361	124.51757
688.558	133.77028
688.755	115.21531
688.952	158.00139
689.148	137.03429
689.345	122.1807
689.542	124.03783
689.739	127.00899
689.936	104.45417
690.133	133.73934
690.33	107.61327
690.526	130.98551
690.723	200.67537
690.92	143.28279
691.117	101.23275
691.314	96.35342
691.51	99.91619
691.707	115.41655
691.904	115.58684
692.1	169.60689
692.297	99.93168
692.494	107.33454
692.69	179.83303
692.887	142.97349
693.084	129.14432
693.28	101.00042
693.477	123.31047
693.673	122.41285
693.87	116.17509
694.066	93.71977
694.263	110.15268
694.459	116.05125
694.656	103.04484
694.852	116.17509
695.049	115.74164
695.245	123.52713
695.442	119.70432
695.638	75.83519
695.834	120.60203
696.031	122.52118
696.227	135.7968
696.423	137.49834
696.62	135.70398
696.816	142.03011
697.012	99.59091
697.209	117.18127
697.405	144.51995
697.601	147.38066
697.797	113.03246
697.994	101.44958
698.19	89.47441
698.386	135.20897
698.582	142.91163
698.778	85.56934
698.974	91.05488
699.17	97.14347
699.367	111.31392
699.563	143.53023
699.759	79.13713
699.955	109.85849
700.151	98.33624
700.347	102.67314
700.543	134.29626
700.739	173.31468
700.935	106.25057
701.131	86.56116
701.327	105.90988
701.523	135.53382
701.718	97.097
701.914	123.26404
702.11	136.07524
702.306	124.08426
702.502	98.28977
702.698	83.07413
702.894	111.11264
703.089	90.01674
703.285	101.61996
703.481	86.39069
703.677	108.10879
703.872	99.09525
704.068	100.83004
704.264	79.94318
704.459	56.99245
704.655	70.62568
704.851	88.66865
705.046	55.953
705.242	59.08674
705.438	62.00296
705.633	82.64016
705.829	74.03678
706.024	105.67759
706.22	132.65641
706.415	110.0443
706.611	114.96762
706.806	140.25152
707.002	94.27751
707.197	112.38221
707.393	112.0416
707.588	84.32951
707.784	109.25462
707.979	74.37787
708.174	78.57909
708.37	76.34679
708.565	103.02936
708.76	87.19652
708.956	108.2946
709.151	87.04156
709.346	76.62583
709.542	80.17569
709.737	54.66527
709.932	129.05148
710.127	105.18204
710.322	89.21099
710.518	77.0134
710.713	68.03605
710.908	60.49835
711.103	95.70278
711.298	99.52895
711.493	74.65694
711.688	80.12919
711.883	84.17453
712.078	121.15922
712.273	124.16164
712.468	68.1446
712.663	97.57721
712.858	93.28597
713.053	108.60429
713.248	109.16172
713.443	90.74499
713.638	65.08946
713.833	78.14504
714.028	81.22971
714.223	124.39377
714.418	143.17454
714.613	88.37423
714.807	138.39547
715.002	82.74866
715.197	93.37893
715.392	50.7086
715.587	63.74013
715.781	90.97741
715.976	57.90775
716.171	123.97593
716.365	86.3287
716.56	104.64001
716.755	48.95507
716.949	90.4506
717.144	109.68817
717.339	78.56359
717.533	88.40522
717.728	119.68884
717.922	52.77235
718.117	42.66934
718.312	101.41861
718.506	75.54063
718.701	145.07665
718.895	152.93116
719.089	108.74365
719.284	90.60554
719.478	65.24455
719.673	40.82214
719.867	104.08249
720.062	75.23057
720.256	82.95014
720.45	74.37787
720.645	44.23703
720.839	87.64592
721.033	91.5507
721.228	66.65585
721.422	85.33688
721.616	71.88163
721.81	82.05119
722.005	87.22751
722.199	93.28597
722.393	73.26157
722.587	56.13917
722.781	110.77201
722.975	101.38763
723.169	94.95917
723.364	101.65093
723.558	77.742
723.752	75.41661
723.946	120.18413
724.14	77.38545
724.334	94.07611
724.528	72.90496
724.722	73.13753
724.916	121.06635
725.11	87.7234
725.304	84.54649
725.498	101.65093
725.692	73.91275
725.885	103.07582
726.079	125.47703
726.273	79.85018
726.467	72.95148
726.661	61.11882
726.855	99.65287
727.048	128.47898
727.242	76.00572
727.436	83.04314
727.63	67.66387
727.823	97.67015
728.017	57.17861
728.211	76.76536
728.405	87.73889
728.598	74.22283
728.792	73.57166
728.986	104.73293
729.179	80.6252
729.373	81.95819
729.566	89.05604
729.76	87.67691
729.953	88.57568
730.147	100.56673
730.34	85.87929
730.534	156.54843
730.727	98.33624
730.921	114.82829
731.114	118.89944
731.308	88.15729
731.501	95.29999
731.695	90.24916
731.888	88.8391
732.081	86.37519
732.275	77.43196
732.468	97.34485
732.661	101.1553
732.855	75.02902
733.048	69.9279
733.241	47.60492
733.434	118.51248
733.628	100.24146
733.821	103.52495
734.014	114.13164
734.207	115.32367
734.4	73.60266
734.594	85.98777
734.787	104.08249
734.98	88.87009
735.173	100.21048
735.366	36.89448
735.559	108.03136
735.752	59.59865
735.945	50.41377
736.138	60.57591
736.331	73.77321
736.524	128.80391
736.717	80.29969
736.91	87.83187
737.103	88.57568
737.296	85.30588
737.489	107.44294
737.682	29.53438
737.875	45.38558
738.067	88.14179
738.26	92.72822
738.453	97.36034
738.646	83.24462
738.839	87.38248
739.031	88.35874
739.224	90.55906
739.417	114.20905
739.61	120.94253
739.802	76.14525
739.995	45.69599
740.188	108.52687
740.38	69.13706
740.573	88.40522
740.765	70.4396
740.958	34.82951
741.151	91.08587
741.343	52.78786
741.536	47.82219
741.728	64.46909
741.921	70.96681
742.113	65.01192
742.306	56.8218
742.498	65.60126
742.691	92.43384
742.883	68.67185
743.076	45.07516
743.268	48.24121
743.46	89.62937
743.653	55.34793
743.845	87.56844
744.037	75.23057
744.23	57.39581
744.422	85.87929
744.614	67.26066
744.807	57.8457
744.999	70.36207
745.191	74.59492
745.383	87.78538
745.575	55.17727
745.768	76.96689
745.96	82.67116
746.152	77.99003
746.344	62.01847
746.536	92.10847
746.728	84.4535
746.92	79.75717
747.112	69.2301
747.304	70.34657
747.496	65.89593
747.688	50.59998
747.88	29.65862
748.072	103.91213
748.264	56.41843
748.456	63.78666
748.648	72.3778
748.84	55.2083
749.032	61.69274
749.224	86.60765
749.416	92.2944
749.608	101.49605
749.799	71.72658
749.991	85.32138
750.183	100.36537
750.375	44.23703
750.567	74.03678
750.758	26.801
750.95	83.29112
751.142	47.21694
751.333	54.13775
751.525	70.02093
751.717	84.91844
751.908	112.14998
752.1	74.25384
752.292	64.87233
752.483	72.48633
752.675	58.66789
752.866	82.22168
753.058	112.05708
753.249	91.14785
753.441	101.65093
753.632	54.33945
753.824	54.57218
754.015	64.84131
754.207	108.03136
754.398	82.06669
754.589	53.61021
754.781	54.13775
754.972	68.22214
755.164	75.27708
755.355	75.3856
755.546	73.15304
755.738	57.87672
755.929	69.50922
756.12	111.88677
756.311	116.36085
756.503	73.0135
756.694	93.53386
756.885	84.23652
757.076	144.47356
757.267	128.80391
757.458	114.53415
757.65	97.43779
757.841	87.2895
758.032	135.22444
758.223	117.49086
758.414	109.23914
758.605	110.80298
758.796	71.13737
758.987	118.41961
759.178	72.34679
759.369	42.45203
759.56	72.67239
759.751	86.37519
759.942	72.54835
760.133	68.81141
760.324	74.16081
760.514	74.22283
760.705	95.4859
760.896	75.78868
761.087	86.20473
761.278	56.2788
761.468	55.37896
761.659	82.74866
761.85	82.03569
762.041	58.99366
762.231	98.61506
762.422	67.38473
762.613	101.44958
762.803	64.08135
762.994	127.17921
763.185	56.26329
763.375	90.7295
763.566	74.42438
763.757	70.6877
763.947	71.92815
764.138	77.0599
764.328	91.95354
764.519	100.7526
764.709	92.20144
764.9	72.87395
765.09	84.54649
765.281	70.36207
765.471	57.42683
765.661	54.72733
765.852	62.065
766.042	59.50558
766.232	33.66498
766.423	54.58769
766.613	68.42373
766.803	38.95929
766.994	88.71514
767.184	54.44806
767.374	120.19961
767.564	103.30813
767.755	77.16842
767.945	54.68078
768.135	69.71081
768.325	108.96043
768.515	93.224
768.706	70.92029
768.896	97.12798
769.086	87.66141
769.276	86.74712
769.466	68.81141
769.656	71.55602
769.846	77.30794
770.036	102.7196
770.226	72.96698
770.416	70.82725
770.606	82.40767
770.796	120.69489
770.986	75.77318
771.176	51.26723
771.366	72.02118
771.555	81.21421
771.745	42.46755
771.935	66.42322
772.125	49.12577
772.315	70.67219
772.504	92.74371
772.694	59.58314
772.884	85.86379
773.074	35.86978
773.263	67.7259
773.453	67.88097
773.643	109.50237
773.832	87.16553
774.022	91.31828
774.212	71.47849
774.401	36.59949
774.591	20.47898
774.781	28.60258
774.97	85.33688
775.16	32.64015
775.349	41.28783
775.539	46.93759
775.728	39.26977
775.918	70.57916
776.107	116.91812
776.297	167.41288
776.486	302.52099
776.675	362.94149
776.865	250.91168
777.054	122.28903
777.243	95.65631
777.433	87.53744
777.622	105.52273
777.811	74.73446
778.001	75.80419
778.19	58.32661
778.379	45.68046
778.568	67.81894
778.758	52.55512
778.947	65.77186
779.136	71.29243
779.325	86.22022
779.514	31.91033
779.703	88.62216
779.892	49.31199
780.082	53.00509
780.271	38.69537
780.46	75.16855
780.649	91.84508
780.838	62.90258
781.027	43.44543
781.216	38.13649
781.405	38.16754
781.594	85.66232
781.783	96.18302
781.971	108.82107
782.16	57.86121
782.349	109.84301
782.538	37.90362
782.727	97.14347
782.916	38.19859
783.105	85.91028
783.293	65.91144
783.482	87.76989
783.671	74.62593
783.86	66.23712
784.048	46.39439
784.237	21.79943
784.426	58.4352
784.614	52.29134
784.803	63.15074
784.992	8.23452
785.18	47.17038
785.369	74.99802
785.557	59.33494
785.746	70.26903
785.935	63.18176
786.123	54.4946
786.312	27.31353
786.5	56.1702
786.689	53.09819
786.877	63.3834
787.065	79.81917
787.254	12.10426
787.442	35.2332
787.631	57.38029
787.819	84.60848
788.007	88.54469
788.196	77.07541
788.384	81.7412
788.572	111.3294
788.761	35.99398
788.949	56.89936
789.137	56.29432
789.325	43.69378
789.513	31.33577
789.702	65.74084
789.89	76.36229
790.078	55.53411
790.266	35.5903
790.454	53.76537
790.642	33.47865
790.83	92.5268
791.018	59.55211
791.207	50.92585
791.395	79.60216
791.583	41.90874
791.771	89.1955
791.959	57.76813
792.146	42.76247
792.334	32.96624
792.522	48.55158
792.71	65.88042
792.898	51.11205
793.086	86.42168
793.274	38.61775
793.462	108.57332
793.65	90.89994
793.837	52.88096
794.025	69.74182
794.213	11.91778
794.401	88.06431
794.588	47.97738
794.776	26.89419
794.964	24.61098
795.151	64.42256
795.339	63.89523
795.527	52.01204
795.714	25.52739
795.902	35.83872
796.089	31.47553
796.277	19.99739
796.465	86.08075
796.652	51.91894
796.84	37.73284
797.027	62.87156
797.215	53.2999
797.402	85.1974
797.59	87.39798
797.777	38.74195
797.964	30.31086
798.152	34.27054
798.339	86.94858
798.526	17.74467
798.714	27.85711
798.901	50.30514
799.088	72.12972
799.276	39.06796
799.463	66.2061
799.65	35.8232
799.837	46.90655
800.025	22.12564
800.212	69.16807
800.399	59.87787
800.586	46.58063
800.773	36.67712
800.96	37.03421
801.148	80.98171
801.335	67.5243
801.522	85.10441
801.709	40.89976
801.896	53.76537
802.083	41.25679
802.27	33.3389
802.457	43.08843
802.644	19.40704
802.831	50.72412
803.018	26.98737
803.204	38.54013
803.391	56.94591
803.578	32.34512
803.765	37.08078
803.952	81.12121
804.139	30.59038
804.326	67.18312
804.512	48.19465
804.699	74.81197
804.886	36.70817
805.073	28.88212
805.259	52.66373
805.446	129.7168
805.633	58.14045
805.819	90.51257
806.006	71.46299
806.192	57.95429
806.379	16.9989
806.566	33.86683
806.752	76.67234
806.939	44.50089
807.125	26.94078
807.312	61.81682
807.498	60.40528
807.685	65.60126
807.871	38.52461
808.058	74.76546
808.244	60.87063
808.43	61.98745
808.617	65.60126
808.803	73.55615
808.99	47.07726
809.176	43.78691
809.362	50.05686
809.549	51.08102
809.735	54.35496
809.921	18.25737
810.107	59.21084
810.293	44.54745
810.48	58.65238
810.666	56.88385
810.852	55.39447
811.038	50.42929
811.224	44.3612
811.41	53.19128
811.597	85.66232
811.783	10.92319
811.969	36.75475
812.155	10.89211
812.341	34.31712
812.527	62.73196
812.713	59.30391
812.899	34.82951
813.085	45.38558
813.271	62.12704
813.456	90.80697
813.642	20.60326
813.828	32.99729
814.014	85.67782
814.2	45.74255
814.386	44.37672
814.572	27.96582
814.757	69.43169
814.943	90.26466
815.129	69.6953
815.315	44.67162
815.5	47.68252
815.686	69.52473
815.872	23.89647
816.057	23.33728
816.243	87.11904
816.429	48.00842
816.614	34.45686
816.8	38.773
816.985	47.06174
817.171	52.58615
817.356	73.83523
817.542	62.794
817.727	59.52109
817.913	13.98453
818.098	35.26425
818.284	27.57755
818.469	46.68927
818.655	36.67712
818.84	77.7575
819.025	27.73286
819.211	71.54051
819.396	75.19956
819.581	25.90016
819.767	23.55474
819.952	67.30719
820.137	72.61037
820.322	70.03644
820.508	127.62795
820.693	60.80859
820.878	56.65114
821.063	54.07568
821.248	71.97466
821.433	17.23195
821.618	60.52937
821.804	35.51267
821.989	32.18984
822.174	68.12909
822.359	80.19119
822.544	18.16415
822.729	67.29168
822.914	14.13992
823.099	25.13909
823.284	49.37406
823.469	30.79226
823.653	63.86421
823.838	52.4465
824.023	30.29533
824.208	39.9994
824.393	59.47455
824.578	45.66494
824.762	5.82537
824.947	46.16159
825.132	49.5758
825.317	38.74195
825.501	58.82302
825.686	39.90625
825.871	48.47399
826.056	37.59312
826.24	66.14407
826.425	80.4082
826.609	22.54506
826.794	22.90234
826.979	38.52461
827.163	39.09901
827.348	37.36024
827.532	15.22761
827.717	31.53764
827.901	27.67074
828.086	61.6462
828.27	35.03135
828.455	62.80952
828.639	63.47646
828.823	71.57153
829.008	30.62144
829.192	25.90016
829.376	54.26187
829.561	27.42224
829.745	14.0156
829.929	11.29617
830.114	45.19933
830.298	91.19433
830.482	25.80697
830.666	69.24561
830.85	35.65241
831.035	54.83594
831.219	23.66348
831.403	21.72175
831.587	13.75144
831.771	85.02692
831.955	40.07701
832.139	32.48487
832.323	54.47909
832.507	12.72585
832.691	31.47553
832.875	21.73729
833.059	28.07454
833.243	6.2295
833.427	26.94078
833.611	38.88167
833.795	31.36683
833.979	66.5783
834.163	22.71593
834.346	82.08219
834.53	25.62059
834.714	62.98013
834.898	28.55598
835.082	53.43954
835.265	56.24777
835.449	26.41271
835.633	-0.08188
835.816	48.8154
836	16.71923
836.184	54.96006
836.367	74.33136
836.551	61.2274
836.735	67.22965
836.918	20.05953
837.102	39.92178
837.285	45.32349
837.469	37.04973
837.652	61.77029
837.836	29.87603
838.019	33.32338
838.203	36.59949
838.386	41.75352
838.569	28.12113
838.753	95.02114
838.936	20.3547
839.12	38.773
839.303	52.61718
839.486	50.181
839.669	23.39941
839.853	34.47239
840.036	29.90709
840.219	24.64205
840.402	-0.34618
840.586	38.99034
840.769	48.13258
840.952	8.38995
841.135	61.42905
841.318	23.33728
841.501	8.35886
841.684	15.05669
841.868	65.01192
842.051	37.82599
842.234	62.82503
842.417	26.98737
842.6	51.65515
842.783	47.21694
842.966	48.97059
843.149	111.57712
843.331	52.50857
843.514	142.2157
843.697	152.9157
843.88	148.98872
844.063	112.16546
844.246	92.91414
844.429	38.27621
844.611	50.13445
844.794	71.02883
844.977	58.12494
845.16	58.792
845.342	52.38444
845.525	39.89073
845.708	21.38
845.89	43.3523
846.073	21.30232
846.256	48.66022
846.438	31.28919
846.621	85.08891
846.803	42.49859
846.986	11.56035
847.168	36.32003
847.351	73.99027
847.533	49.20336
847.716	48.28776
847.898	73.3546
848.081	3.78907
848.263	22.21885
848.446	10.64346
848.628	62.12704
848.81	21.69069
848.993	17.02997
849.175	11.24955
849.357	47.3411
849.539	35.99398
849.722	29.51885
849.904	11.10968
850.086	45.19933
850.268	73.83523
850.451	93.33245
850.633	62.065
850.815	23.86541
850.997	75.63365
851.179	29.09954
851.361	38.29174
851.543	23.50814
851.725	46.36335
851.907	32.57804
852.089	51.22067
852.271	43.94212
852.453	61.70825
852.635	39.9373
852.817	34.48792
852.999	36.22687
853.181	17.85342
853.363	35.38846
853.545	34.41028
853.727	41.55172
853.908	31.72399
854.09	43.29022
854.272	83.88006
854.454	46.06847
854.636	60.9637
854.817	33.12152
854.999	45.74255
855.181	42.91769
855.362	35.27978
855.544	33.4476
855.726	47.55837
855.907	32.29854
856.089	37.71732
856.27	38.21411
856.452	24.20713
856.634	64.23644
856.815	40.94633
856.997	61.19637
857.178	16.26864
857.36	26.08654
857.541	9.10487
857.722	36.3045
857.904	32.71779
858.085	43.25917
858.267	52.12066
858.448	30.31086
858.629	36.95658
858.811	14.18653
858.992	38.50908
859.173	38.97481
859.354	31.00967
859.536	68.9975
859.717	-7.04791
859.898	33.09046
860.079	44.19047
860.26	50.19652
860.441	52.64822
860.623	51.03447
860.804	28.41621
860.985	46.39439
861.166	29.1306
861.347	2.82527
861.528	-2.04089
861.709	59.7848
861.89	28.33856
862.071	61.2274
862.252	44.19047
862.433	31.52212
862.614	101.40312
862.794	14.63715
862.975	46.03743
863.156	88.46721
863.337	18.25737
863.518	67.07457
863.699	29.68968
863.879	61.95642
864.06	28.69576
864.241	36.13372
864.422	33.57182
864.602	31.86374
864.783	71.83512
864.964	28.07454
865.144	25.90016
865.325	41.17917
865.506	44.98204
865.686	33.6184
865.867	46.37887
866.047	49.97927
866.228	37.09631
866.408	18.83221
866.589	33.75814
866.769	56.58908
866.95	23.80327
867.13	33.6184
867.31	25.97782
867.491	56.72871
867.671	9.24475
867.852	12.69477
868.032	60.83961
868.212	49.03266
868.393	54.06017
868.573	22.48293
868.753	28.74235
868.933	36.16477
869.113	27.20481
869.294	31.77057
869.474	50.95688
869.654	20.33916
869.834	26.33505
870.014	41.00842
870.194	3.16727
870.374	53.45506
870.555	28.83553
870.735	27.63968
870.915	31.11837
871.095	29.06848
871.275	42.96426
871.455	52.94303
871.634	21.27125
871.814	54.54115
871.994	24.64205
872.174	34.05316
872.354	54.68078
872.534	44.6561
872.714	16.7503
872.894	32.6091
873.073	37.77942
873.253	61.63069
873.433	17.18534
873.613	25.63612
873.792	42.57621
873.972	32.68674
874.152	5.46786
874.331	51.39136
874.511	72.31578
874.691	29.30143
874.87	15.25868
875.05	37.37576
875.229	29.65862
875.409	40.40301
875.588	21.22465
875.768	50.58446
875.947	70.40859
876.127	64.60867
876.306	50.47584
876.486	26.53696
876.665	42.93321
876.844	36.7237
877.024	79.41615
877.203	46.31679
877.382	20.47898
877.562	9.69545
877.741	25.27888
877.92	51.08102
878.1	58.15596
878.279	11.26509
878.458	18.6147
878.637	29.50332
878.816	59.5366
878.996	34.79845
879.175	35.62136
879.354	31.32024
879.533	63.66258
879.712	45.13725
879.891	32.87307
880.07	60.42079
880.249	38.81957
880.428	49.88616
880.607	61.39802
880.786	22.76253
880.965	72.17623
881.144	51.8879
881.323	12.78801
881.502	47.32558
881.68	38.54013
881.859	24.03627
882.038	48.52055
882.217	26.07101
882.396	2.57654
882.574	31.5687
882.753	35.0003
882.932	31.10284
883.111	72.3778
883.289	44.20599
883.468	42.62277
883.647	42.63829
883.825	44.48537
884.004	57.34926
884.182	28.18325
884.361	45.35453
884.539	28.36962
884.718	51.26723
884.896	7.131
885.075	39.79759
885.253	60.12606
885.432	32.43829
885.61	1.06858
885.789	35.21767
885.967	19.8731
886.145	56.21674
886.324	39.54921
886.502	26.05548
886.68	55.96851
886.859	25.83803
887.037	46.68927
887.215	37.29814
887.393	59.11776
887.572	11.18738
887.75	53.42402
887.928	47.31006
888.106	46.16159
888.284	59.73826
888.462	49.34303
888.64	34.17738
888.819	39.73549
888.997	51.7948
889.175	17.37178
889.353	30.15556
889.531	42.0174
889.709	36.63054
889.887	22.0169
890.065	57.38029
890.242	46.14607
890.42	62.11153
890.598	24.9993
890.776	42.04845
890.954	25.4808
891.132	24.76631
891.309	19.03418
891.487	52.01204
891.665	30.66803
891.843	39.6113
892.02	16.3774
892.198	42.40546
892.376	34.55003
892.553	65.07395
892.731	74.73446
892.909	44.00421
893.086	44.87339
893.264	36.53739
893.441	20.75861
893.619	39.70444
893.797	41.1326
893.974	31.14943
894.151	30.86991
894.329	32.1122
894.506	4.67511
894.684	40.35644
894.861	31.42894
895.039	21.4732
895.216	14.99453
895.393	51.39136
895.571	5.00154
895.748	17.44947
895.925	86.39069
896.102	55.72028
896.28	36.69265
896.457	21.48874
896.634	28.16772
896.811	5.43677
896.988	26.67675
897.166	37.62417
897.343	13.34743
897.52	59.93992
897.697	13.89129
897.874	60.66898
898.051	49.01714
898.228	39.08348
898.405	3.16727
898.582	11.0009
898.759	5.82537
898.936	42.94874
899.113	55.08418
899.29	62.46828
899.467	65.38414
899.643	71.81961
899.82	59.36596
899.997	53.36196
900.174	0.26015
900.351	57.17861
900.527	31.30471
900.704	34.89161
900.881	69.27662
901.058	32.74885
901.234	36.7237
901.411	48.50503
901.588	31.83269
901.764	56.89936
901.941	58.59033
902.117	41.69143
902.294	25.4808
902.471	51.4224
902.647	10.81441
902.824	18.55256
903	47.94635
903.176	42.87113
903.353	63.78666
903.529	20.18381
903.706	41.58277
903.882	42.60725
904.058	12.38398
904.235	18.50595
904.411	6.58699
904.587	45.80463
904.764	24.0518
904.94	20.27702
905.116	29.82944
905.292	41.47411
905.469	34.27054
905.645	32.01903
905.821	58.46622
905.997	30.52827
906.173	13.39404
906.349	44.93548
906.525	36.33555
906.702	29.8605
906.878	10.76779
907.054	40.48063
907.23	37.15841
907.406	33.7892
907.582	72.03669
907.757	13.23865
907.933	25.71378
908.109	45.77359
908.285	31.2426
908.461	49.56028
908.637	8.85621
908.813	32.09667
908.988	36.58397
909.164	54.27739
909.34	34.5345
909.516	42.31233
909.691	5.71656
909.867	60.21914
910.043	36.28898
910.219	62.84054
910.394	58.15596
910.57	34.50344
910.745	64.3295
910.921	58.51276
911.097	2.91854
911.272	4.37977
911.448	55.50308
911.623	13.06772
911.799	6.44711
911.974	0.5089
912.149	27.40671
912.325	32.57804
912.5	37.99677
912.676	16.51724
912.851	-8.91413
913.026	47.12382
913.202	10.44143
913.377	10.64346
913.552	3.05845
913.727	82.88815
913.903	31.18048
914.078	20.58772
914.253	45.88223
914.428	52.08962
914.603	-12.86472
914.779	18.30398
914.954	37.01868
915.129	59.92441
915.304	38.26069
915.479	31.39789
915.654	29.54991
915.829	49.51373
916.004	11.0009
916.179	62.37522
916.354	16.64154
916.529	45.60286
916.704	20.91396
916.879	57.81467
917.053	74.79647
917.228	28.44727
917.403	39.85968
917.578	63.61605
917.753	33.36996
917.927	0.38453
918.102	16.3774
918.277	26.61462
918.452	34.22396
918.626	23.07321
918.801	40.21673
918.976	29.16166
919.15	22.85574
919.325	52.32237
919.499	30.62144
919.674	40.99289
919.849	32.42276
920.023	59.61416
920.198	39.14558
920.372	22.7004
920.547	50.9724
920.721	13.89129
920.895	41.90874
921.07	24.45566
921.244	35.55925
921.419	50.42929
921.593	22.54506
921.767	43.01082
921.942	45.66494
922.116	12.52383
922.29	27.63968
922.464	39.85968
922.639	21.22465
922.813	18.24183
922.987	51.94997
923.161	10.55022
923.335	27.45331
923.509	39.51816
923.683	33.23021
923.858	34.42581
924.032	61.75478
924.206	47.49629
924.38	-3.67351
924.554	24.9993
924.728	33.97553
924.902	79.64867
925.075	47.38765
925.249	46.30127
925.423	54.51012
925.597	45.89775
925.771	20.6654
925.945	32.8886
926.119	80.6097
926.292	46.90655
926.466	19.37597
926.64	35.8853
926.814	40.99289
926.987	6.46265
927.161	19.40704
927.335	10.95428
927.508	50.46032
927.682	-12.42919
927.856	21.69069
928.029	45.5563
928.203	46.14607
928.376	46.64271
928.55	13.70483
928.723	2.94963
928.897	42.66934
929.07	29.70521
929.244	42.42098
929.417	-6.006
929.59	29.25484
929.764	22.56059
929.937	39.19215
930.111	68.5788
930.284	12.18196
930.457	-6.44142
930.63	15.80251
930.804	29.02189
930.977	27.01844
931.15	37.06526
931.323	62.04949
931.497	28.99083
931.67	34.98477
931.843	54.55666
932.016	14.51284
932.189	32.53146
932.362	50.91033
932.535	65.13599
932.708	43.67826
932.881	15.39853
933.054	57.22515
933.227	51.99652
933.4	6.86677
933.573	37.46892
933.746	13.17649
933.919	38.07439
934.092	21.28679
934.264	42.09501
934.437	33.13704
934.61	18.35059
934.783	15.19653
934.956	13.28527
935.128	33.47865
935.301	63.15074
935.474	17.80681
935.646	7.06883
935.819	27.36012
935.992	23.55474
936.164	4.986
936.337	21.48874
936.51	9.30692
936.682	48.55158
936.855	2.87191
937.027	72.48633
937.2	43.55409
937.372	25.06143
937.545	23.60134
937.717	41.31888
937.889	9.44679
938.062	62.6389
938.234	43.95765
938.406	24.68865
938.579	31.38236
938.751	42.82456
938.923	56.15469
939.096	68.95097
939.268	40.49615
939.44	43.38335
939.612	38.47803
939.784	40.35644
939.957	39.23872
940.129	43.02635
940.301	32.96624
940.473	40.55824
940.645	54.97557
940.817	51.99652
940.989	18.47488
941.161	21.27125
941.333	39.36292
941.505	7.89259
941.677	19.98185
941.849	9.72654
942.021	30.90096
942.193	7.59728
942.365	12.60153
942.537	44.54745
942.708	57.08553
942.88	48.79988
943.052	-0.11298
943.224	18.41273
943.395	24.0052
943.567	33.96
943.739	29.4412
943.911	7.17763
944.082	15.67821
944.254	69.32314
944.425	6.9134
944.597	21.22465
944.769	41.78456
944.94	29.03742
945.112	76.28478
945.283	81.3382
945.455	10.0529
945.626	40.23225
945.798	18.84775
945.969	36.45976
946.14	48.00842
946.312	40.04597
946.483	18.90989
946.655	34.39476
946.826	39.08348
946.997	58.62135
947.168	3.30718
947.34	25.85357
947.511	55.85991
947.682	27.68627
947.853	30.48168
948.025	69.38517
948.196	19.174
948.367	42.1571
948.538	7.95476
948.709	32.12773
948.88	11.18738
949.051	41.08603
949.222	23.02661
949.393	48.48951
949.564	26.39718
949.735	13.84468
949.906	24.79737
950.077	23.04214
950.248	51.7017
950.419	19.98185
950.59	8.84066
950.761	22.06351
950.931	47.29454
951.102	41.69143
951.273	32.25195
951.444	41.76904
951.614	52.02756
951.785	21.76836
951.956	27.0495
952.126	66.48525
952.297	103.64885
952.468	13.61159
952.638	18.03986
952.809	27.14269
952.98	2.85636
953.15	41.27231
953.321	2.46772
953.491	13.92237
953.662	26.05548
953.832	24.96823
954.002	-1.77657
954.173	0.67992
954.343	43.04187
954.514	2.32781
954.684	2.80973
954.854	35.63688
955.025	26.59909
955.195	45.60286
955.365	33.35443
955.535	12.4306
955.706	48.08602
955.876	43.94212
956.046	54.71181
956.216	36.91
956.386	35.69899
956.557	40.5272
956.727	5.34351
956.897	40.15463
957.067	6.94449
957.237	34.92267
957.407	42.96426
957.577	48.11706
957.747	13.84468
957.917	21.65962
958.087	4.79947
958.257	35.37294
958.427	22.31205
958.596	9.55558
958.766	43.47648
958.936	-32.2063
959.106	53.39299
959.276	26.86312
959.445	10.06844
959.615	41.34992
959.785	46.14607
959.955	82.42317
960.124	27.84158
960.294	33.74262
960.464	19.06525
960.633	2.94963
960.803	16.2531
960.972	35.90083
961.142	3.12063
961.311	30.26427
961.481	22.34312
961.65	37.01868
961.82	35.2332
961.989	93.68879
962.159	33.57182
962.328	61.77029
962.498	56.21674
962.667	16.9989
962.836	9.75762
963.006	28.36962
963.175	20.26149
963.344	43.135
963.513	19.68668
963.683	-5.27513
963.852	7.98585
964.021	18.86328
964.19	14.373
964.359	11.17184
964.528	30.73014
964.698	13.90683
964.867	24.9061
965.036	32.06561
965.205	57.17861
965.374	33.71156
965.543	33.69603
965.712	29.05295
965.881	22.51399
966.05	23.86541
966.219	21.14698
966.387	40.74452
966.556	49.09473
966.725	27.42224
966.894	38.57118
967.063	25.40314
967.232	45.50974
967.4	15.27422
967.569	18.25737
967.738	68.53228
967.906	1.33287
968.075	40.729
968.244	-4.87083
968.412	13.62713
968.581	36.19582
968.75	20.44791
968.918	11.56035
969.087	19.23614
969.255	34.08422
969.424	32.59357
969.592	43.21261
969.761	28.21431
969.929	47.94635
970.098	54.68078
970.266	-16.30253
970.434	17.86896
970.603	27.73286
970.771	43.30574
970.939	19.79543
971.108	56.20123
971.276	12.75693
971.444	40.09254
971.612	-27.98822
971.781	38.6488
971.949	115.18435
972.117	40.74452
972.285	53.53264
972.453	1.92362
972.621	11.43603
972.789	32.46935
972.957	66.71788
973.125	18.36613
973.293	12.91232
973.461	41.34992
973.629	64.74826
973.797	26.4593
973.965	43.83347
974.133	31.80163
974.301	29.50332
974.469	17.82235
974.637	42.45203
974.805	61.90989
974.972	31.97244
975.14	54.898
975.308	24.51779
975.476	20.10613
975.643	47.96187
975.811	9.80424
975.979	71.66456
976.146	29.11507
976.314	53.68779
976.482	35.40399
976.649	18.17969
976.817	41.16365
976.984	46.19263
977.152	24.9527
977.319	58.49725
977.487	55.67374
977.654	34.62766
977.822	7.0222
977.989	26.87865
978.156	26.92525
978.324	34.09974
978.491	21.67515
978.658	-10.95156
978.826	35.09346
978.993	35.76109
979.16	34.70529
979.328	24.42459
979.495	45.69599
979.662	-2.80277
979.829	30.49721
979.996	53.33093
980.163	49.88616
980.33	-9.14741
980.498	21.78389
980.665	41.76904
980.832	-5.8816
980.999	24.53332
981.166	40.40301
981.333	36.83238
981.5	36.16477
981.667	109.00688
981.833	5.68547
982	56.24777
982.167	5.68547
982.334	25.58952
982.501	22.73147
982.668	34.22396
982.834	-0.79706
983.001	55.90646
983.168	57.2717
983.335	22.51399
983.501	31.52212
983.668	17.74467
983.835	21.93923
984.001	47.49629
984.168	14.68377
984.334	42.63829
984.501	30.17109
984.668	8.62308
984.834	6.18287
985.001	-8.80526
985.167	52.97406
985.334	-0.05079
985.5	10.64346
985.666	5.7321
985.833	10.06844
985.999	18.03986
986.165	33.99105
986.332	57.14759
986.498	29.11507
986.664	32.26748
986.831	35.31083
986.997	23.72561
987.163	6.82014
987.329	15.32084
987.495	1.90808
987.662	35.79215
987.828	8.35886
987.994	39.92178
988.16	62.6389
988.326	14.31084
988.492	24.73524
988.658	45.13725
988.824	36.59949
988.99	12.91232
989.156	10.27048
989.322	71.04433
989.488	37.39129
989.654	25.03036
989.82	22.00137
989.985	54.46357
990.151	38.50908
990.317	65.97347
990.483	7.5662
990.648	37.93467
990.814	28.57151
990.98	35.18662
991.146	39.59578
991.311	46.17711
991.477	35.34188
991.643	14.43515
991.808	17.27856
991.974	-11.43373
992.139	23.02661
992.305	32.53146
992.47	8.25007
992.636	48.28776
992.801	48.84644
992.967	22.8868
993.132	26.42824
993.298	87.63042
993.463	17.82235
993.628	23.80327
993.794	22.23438
993.959	57.65954
994.124	7.78379
994.29	35.27978
994.455	59.30391
994.62	19.93525
994.785	57.87672
994.95	11.66914
995.116	53.09819
995.281	23.94307
995.446	23.29068
995.611	-12.47586
995.776	21.27125
995.941	32.64015
996.106	24.76631
996.271	22.7936
996.436	49.85513
996.601	42.0174
996.766	23.13534
996.931	26.13314
997.096	25.60505
997.261	12.78801
997.425	43.58513
997.59	11.48265
997.755	33.24574
997.92	21.67515
998.085	21.65962
998.249	13.17649
998.414	-3.9534
998.579	-0.61049
998.744	33.46312
998.908	44.64058
999.073	54.96006
999.237	43.38335
999.402	11.93332
999.567	30.85438
999.731	24.92163
999.896	-22.61931
1000.06	52.10514
1000.225	29.8605
1000.389	39.75102
1000.553	41.69143
1000.718	41.70695
1000.882	-15.80472
1001.047	24.36246
1001.211	14.0156
1001.375	81.7257
1001.54	13.48728
1001.704	12.55491
1001.868	59.61416
1002.032	62.37522
1002.197	23.91201
1002.361	13.50282
1002.525	38.01229
1002.689	32.42276
1002.853	6.16732
1003.017	3.92897
1003.181	9.44679
1003.345	32.67121
1003.509	49.34303
1003.673	37.74837
1003.837	39.47159
1004.001	18.7856
1004.165	18.53702
1004.329	33.99105
1004.493	24.65758
1004.657	33.13704
1004.821	5.20361
1004.985	28.89765
1005.149	37.82599
1005.312	33.80473
1005.476	12.50829
1005.64	93.28597
1005.804	16.51724
1005.967	59.11776
1006.131	45.26141
1006.295	38.21411
1006.458	29.05295
1006.622	30.77673
1006.785	24.78184
1006.949	53.06716
1007.113	22.26545
1007.276	21.64408
1007.44	30.17109
1007.603	8.06356
1007.767	26.87865
1007.93	26.33505
1008.093	9.44679
1008.257	39.19215
1008.42	-15.66471
1008.584	25.85357
1008.747	14.40407
1008.91	42.73143
1009.073	1.59716
1009.237	40.58929
1009.4	37.42234
1009.563	-0.31509
1009.726	24.48672
1009.889	80.00518
1010.053	35.41952
1010.216	35.62136
1010.379	40.40301
1010.542	81.4777
1010.705	40.07701
1010.868	49.48269
1011.031	37.18946
1011.194	32.68674
1011.357	35.74557
1011.52	6.94449
1011.683	11.54481
1011.846	41.44306
1012.009	35.62136
1012.171	39.54921
1012.334	44.50089
1012.497	56.15469
1012.66	7.98585
1012.823	32.68674
1012.985	71.83512
1013.148	51.65515
1013.311	27.63968
1013.473	31.44447
1013.636	-5.52394
1013.799	45.77359
1013.961	36.77027
1014.124	24.39353
1014.286	49.35855
1014.449	6.63362
1014.612	55.51859
1014.774	25.99335
1014.936	25.4342
1015.099	3.71135
1015.261	2.17236
1015.424	38.02782
1015.586	33.30785
1015.748	26.64568
1015.911	11.90224
1016.073	93.08456
1016.235	41.86217
1016.398	38.50908
1016.56	50.4448
1016.722	1.34842
1016.884	5.46786
1017.047	53.2999
1017.209	34.28607
1017.371	9.91303
1017.533	12.66369
1017.695	67.40023
1017.857	45.19933
1018.019	66.59381
1018.181	42.90217
1018.343	32.87307
1018.505	30.43509
1018.667	-10.01837
1018.829	0.81984
1018.991	41.11708
1019.153	35.35741
1019.315	-6.0371
1019.477	9.89749
1019.638	22.96447
1019.8	-8.29204
1019.962	43.66274
1020.124	24.145
1020.285	20.712
1020.447	34.81398
1020.609	23.18194
1020.77	4.8461
1020.932	88.90109
1021.094	22.52953
1021.255	10.41035
1021.417	46.99967
1021.578	22.06351
1021.74	33.35443
1021.901	21.75282
1022.063	8.82512
1022.224	57.20964
1022.386	30.59038
1022.547	43.10395
1022.709	30.31086
1022.87	58.82302
1023.031	21.13144
1023.193	28.33856
1023.354	36.59949
1023.515	35.57478
1023.676	30.04686
1023.838	34.78293
1023.999	26.67675
1024.16	49.9172
1024.321	37.62417
1024.482	46.05295
1024.644	80.06719
1024.805	52.92751
1024.966	39.75102
1025.127	13.78252
1025.288	26.53696
1025.449	72.53285
1025.61	19.84203
1025.771	28.78894
1025.932	54.30842
1026.093	52.67925
1026.253	14.0933
1026.414	-10.11169
1026.575	13.16095
1026.736	9.63329
1026.897	4.93936
1027.058	59.75377
1027.218	26.86312
1027.379	0.52445
1027.54	41.31888
1027.7	26.28846
1027.861	47.9929
1028.022	36.36661
1028.182	21.58194
1028.343	41.19469
1028.504	12.07318
1028.664	24.54885
1028.825	27.67074
1028.985	37.34471
1029.146	9.22921
1029.306	24.0518
1029.466	75.30808
1029.627	69.64878
1029.787	25.71378
1029.948	35.5282
1030.108	20.75861
1030.268	58.06288
1030.429	21.61301
1030.589	33.07493
1030.749	18.98757
1030.909	28.64917
1031.07	30.52827
1031.23	27.67074
1031.39	-12.10255
1031.55	49.54476
1031.71	-0.93699
1031.87	37.08078
1032.03	45.05964
1032.19	25.12356
1032.35	25.13909
1032.51	55.56514
1032.67	13.08326
1032.83	32.70227
1032.99	25.40314
1033.15	51.87239
1033.31	44.39224
1033.47	10.37927
1033.63	25.10802
1033.79	20.86735
1033.949	5.9808
1034.109	31.1339
1034.269	23.25961
1034.429	79.21464
1034.588	38.22964
1034.748	33.19915
1034.908	31.42894
1035.067	26.61462
1035.227	30.63697
1035.387	36.13372
1035.546	51.31378
1035.706	18.21076
1035.865	38.04334
1036.025	20.15274
1036.184	40.23225
1036.344	25.01483
1036.503	47.24798
1036.662	12.88124
1036.822	38.94376
1036.981	22.29652
1037.14	36.7858
1037.3	12.10426
1037.459	25.15462
1037.618	45.57182
1037.778	41.89322
1037.937	45.74255
1038.096	33.21468
1038.255	39.6734
1038.414	15.4296
1038.573	67.61734
1038.733	24.25373
1038.892	46.56511
1039.051	73.57166
1039.21	63.77115
1039.369	9.13596
1039.528	48.5671
1039.687	32.6091
1039.846	55.45653
1040.005	13.70483
1040.164	35.5903
1040.322	23.77221
1040.481	29.31696
1040.64	24.9061
1040.799	1.56606
1040.958	66.06652
1041.116	24.75078
1041.275	10.76779
1041.434	36.91
1041.593	-9.03855
1041.751	26.59909
1041.91	46.75135
1042.069	17.07658
1042.227	28.85106
1042.386	72.7034
1042.544	25.23228
1042.703	47.60492
1042.861	34.50344
1043.02	26.22633
1043.178	28.27644
1043.337	73.44762
1043.495	40.9308
1043.653	16.05112
1043.812	10.61238
1043.97	23.43048
1044.129	2.99627
1044.287	46.14607
1044.445	36.47529
1044.603	4.44195
1044.762	-17.93603
1044.92	53.5947
1045.078	39.48711
1045.236	24.9993
1045.394	25.27888
1045.552	56.01506
