Data from deutdg_200ms_20_SR4014911__0__16-45-59-520.txt Node

Date: Sun Jul 13 16:45:59 EDT 2025
User: cryst
Spectrometer: SR401491
Trigger mode: 0
Integration Time (sec): 2.000000E-1
Scans to average: 20
Electric dark correction enabled: true
Nonlinearity correction enabled: true
Boxcar width: 0
XAxis mode: Wavelengths
Number of Pixels in Spectrum: 3648
>>>>>Begin Spectral Data<<<<<
344.912	-383.65302
345.129	-361.66942
345.347	-379.12206
345.565	-341.74721
345.783	164.40175
346.001	92.59084
346.219	84.29283
346.437	134.36794
346.654	238.13178
346.872	66.54935
347.09	-34.98293
347.308	200.2916
347.526	142.32602
347.743	48.08809
347.961	314.30811
348.179	159.6959
348.397	195.75386
348.614	259.48576
348.832	276.19119
349.05	316.67531
349.268	341.46567
349.485	345.01312
349.703	252.80088
349.921	432.00862
350.138	392.70136
350.356	405.95249
350.574	230.63253
350.791	309.84218
351.009	398.22785
351.227	321.46293
351.444	315.22273
351.662	354.84702
351.879	275.43696
352.097	342.3257
352.314	321.19398
352.532	322.21597
352.75	348.29145
352.967	348.02275
353.185	362.15316
353.402	287.55612
353.62	273.38966
353.837	407.18611
354.055	347.4316
354.272	399.89096
354.49	514.0531
354.707	505.71407
354.925	295.30973
355.142	375.09567
355.359	460.50542
355.577	472.44264
355.794	404.1288
356.012	511.80819
356.229	429.38257
356.446	300.31617
356.664	392.75502
356.881	480.25554
357.099	353.77244
357.316	337.11139
357.533	457.82828
357.751	314.0929
357.968	660.59109
358.185	460.71958
358.402	377.94119
358.62	480.7906
358.837	452.15196
359.054	320.38713
359.272	288.47159
359.489	311.94071
359.706	387.60322
359.923	437.09928
360.141	404.87974
360.358	430.50805
360.575	451.9913
360.792	369.51121
361.009	384.65126
361.226	405.5234
361.444	556.35561
361.661	406.91794
361.878	412.38819
362.095	326.94891
362.312	440.20685
362.529	409.27777
362.746	447.01024
362.963	292.45621
363.181	335.01466
363.398	406.32795
363.615	585.32592
363.832	324.95901
364.049	315.22273
364.266	551.12428
364.483	441.59979
364.7	354.09482
364.917	258.24594
365.134	424.55864
365.351	391.52081
365.568	469.07071
365.785	375.79365
366.002	311.45645
366.219	350.54845
366.436	485.87319
366.652	529.60267
366.869	366.12781
367.086	508.92165
367.303	291.37934
367.52	354.90075
367.737	508.81474
367.954	499.08402
368.171	379.7128
368.387	632.80638
368.604	382.34317
368.821	413.35343
369.038	347.0554
369.255	448.67069
369.471	305.32175
369.688	508.54745
369.905	496.51717
370.122	449.15273
370.339	421.93195
370.555	359.95077
370.772	328.45468
370.989	626.41575
371.205	343.2932
371.422	383.73878
371.639	319.25749
371.855	566.70898
372.072	361.56229
372.289	320.92504
372.505	536.65354
372.722	327.05646
372.939	405.04066
373.155	526.23692
373.372	368.97419
373.589	484.37525
373.805	387.44221
374.022	362.09945
374.238	330.55188
374.455	451.66996
374.671	503.62896
374.888	434.84878
375.104	266.65412
375.321	293.47921
375.537	361.45486
375.754	443.42124
375.97	421.66391
376.187	607.82254
376.403	344.69064
376.62	412.97806
376.836	340.17558
377.053	397.20847
377.269	368.59827
377.486	338.88543
377.702	234.57123
377.918	280.60842
378.135	380.51804
378.351	460.3448
378.568	337.16515
378.784	405.89886
379	426.0595
379.217	374.55875
379.433	327.11024
379.649	549.84301
379.865	345.76556
380.082	529.17529
380.298	315.92213
380.514	567.8295
380.731	383.14834
380.947	303.86861
381.163	450.33104
381.379	387.49588
381.596	385.13433
381.812	514.21344
382.028	463.2894
382.244	384.00716
382.46	323.07656
382.676	559.18444
382.893	436.24197
383.109	408.09788
383.325	381.26958
383.541	510.73913
383.757	223.40117
383.973	405.63067
384.189	527.35887
384.405	402.89506
384.622	387.22753
384.838	469.07071
385.054	442.99267
385.27	553.09948
385.486	384.38289
385.702	303.65332
385.918	437.58151
386.134	395.16963
386.35	487.10358
386.566	550.53704
386.782	522.92424
386.998	522.44334
387.214	451.34863
387.43	429.27538
387.646	566.0153
387.861	491.97119
388.077	433.40194
388.293	473.78061
388.509	516.93917
388.725	435.00953
388.941	468.4284
389.157	378.53174
389.373	440.5283
389.588	499.61876
389.804	453.81213
390.02	599.13495
390.236	352.53662
390.452	416.51704
390.668	357.47959
390.883	594.55037
391.099	470.3553
391.315	522.92424
391.531	365.4296
391.746	427.72108
391.962	464.30656
392.178	466.18019
392.393	405.36249
392.609	641.32527
392.825	410.404
393.041	364.78508
393.256	488.38742
393.472	521.58839
393.687	506.30215
393.903	576.68559
394.119	466.0196
394.334	520.1456
394.55	571.13749
394.766	469.92711
394.981	566.70898
395.197	568.41643
395.412	595.19012
395.628	596.68281
395.843	634.77657
396.059	868.03747
396.274	608.83505
396.49	762.80067
396.705	569.75031
396.921	375.79365
397.136	509.50967
397.352	511.64784
397.567	432.22298
397.783	454.9367
397.998	490.52704
398.214	466.18019
398.429	373.16271
398.644	712.90346
398.86	454.9367
399.075	538.52283
399.29	419.1442
399.506	393.45259
399.721	461.73683
399.936	440.90333
400.152	405.04066
400.367	471.96096
400.582	480.95111
400.798	557.31638
401.013	377.24326
401.228	550.32349
401.444	507.37136
401.659	483.62625
401.874	626.14945
402.089	511.05986
402.304	532.96805
402.52	509.29585
402.735	390.98419
402.95	410.61851
403.165	539.80456
403.38	622.0481
403.596	459.64876
403.811	557.52988
404.026	712.53161
404.241	424.93386
404.456	440.90333
404.671	632.11412
404.886	575.08528
405.101	423.86178
405.316	522.01587
405.532	647.87266
405.747	548.61507
405.962	547.44048
406.177	525.64921
406.392	481.11163
406.607	626.30923
406.822	612.1921
407.037	618.95844
407.252	821.31063
407.467	751.97814
407.682	782.262
407.896	886.3304
408.111	842.37978
408.326	905.56489
408.541	1127.83039
408.756	1241.62759
408.971	1304.31597
409.186	1348.47637
409.401	1167.98482
409.616	641.59145
409.83	502.50616
410.045	482.55622
410.26	420.85977
410.475	413.5143
410.69	526.82461
410.905	500.04654
411.119	336.95011
411.334	438.76026
411.549	470.08768
411.764	575.40535
411.978	617.94624
412.193	485.12423
412.408	432.22298
412.623	343.93818
412.837	624.55158
413.052	541.03284
413.267	538.36261
413.481	443.79623
413.696	436.56346
413.911	434.84878
414.125	429.061
414.34	397.26213
414.554	428.09627
414.769	545.19795
414.984	460.07709
415.198	346.6792
415.413	402.5732
415.627	496.57065
415.842	436.93854
416.056	544.39701
416.271	433.29476
416.485	539.32392
416.7	509.24239
416.914	443.42124
417.129	418.92974
417.343	507.85249
417.558	468.6425
417.772	567.93622
417.987	530.83134
418.201	436.24197
418.415	345.8193
418.63	479.2389
418.844	485.12423
419.059	547.97439
419.273	477.5266
419.487	650.4806
419.702	514.85481
419.916	676.01691
420.13	468.58898
420.345	462.43282
420.559	462.59343
420.773	425.36268
420.988	487.95948
421.202	619.27807
421.416	458.31018
421.63	520.19904
421.845	539.21711
422.059	461.36206
422.273	375.41782
422.487	523.6723
422.701	628.65261
422.916	624.71137
423.13	466.66196
423.344	430.40086
423.558	406.75703
423.772	373.86073
423.986	470.99757
424.201	487.8525
424.415	628.9189
424.629	519.93185
424.843	483.84025
425.057	581.37939
425.271	339.31549
425.485	359.68217
425.699	381.32326
425.913	608.30216
426.127	498.76318
426.341	466.87608
426.555	482.98424
426.769	554.80766
426.983	612.72494
427.197	552.19197
427.411	494.21753
427.625	611.1797
427.839	463.34294
428.053	469.76654
428.267	439.34962
428.481	575.352
428.695	426.1131
428.908	340.06807
429.122	517.63392
429.336	515.6565
429.55	461.4156
429.764	614.21682
429.978	798.10928
430.191	809.39407
430.405	1085.89992
430.619	1138.75224
430.833	1555.46028
431.047	1983.92894
431.26	2687.83123
431.474	3266.57267
431.688	3610.72831
431.901	3813.86891
432.115	4592.79805
432.329	5095.19081
432.543	5529.29145
432.756	6551.43554
432.97	6756.21716
433.184	4752.56522
433.397	2141.52272
433.611	808.65245
433.824	674.52784
434.038	534.57049
434.252	508.44053
434.465	477.68713
434.679	455.6864
434.892	517.95457
435.106	309.51931
435.319	420.53811
435.533	615.22914
435.747	563.18708
435.96	356.4051
436.174	600.41425
436.387	565.7485
436.601	527.67942
436.814	655.74909
437.027	406.22068
437.241	581.6994
437.454	369.35011
437.668	602.17321
437.881	593.69735
438.095	490.15261
438.308	508.54745
438.521	684.7373
438.735	504.80519
438.948	538.20239
439.161	538.09557
439.375	512.71686
439.588	596.84274
439.801	591.88461
440.015	494.53842
440.228	606.86329
440.441	681.49401
440.654	804.94417
440.868	713.32843
441.081	430.72242
441.294	599.50808
441.507	600.89397
441.721	448.67069
441.934	572.20451
442.147	475.33257
442.36	539.00349
442.573	597.58906
442.786	413.40705
443	632.54013
443.213	515.70995
443.426	549.36251
443.639	690.79769
443.852	560.25186
444.065	662.2404
444.278	561.10577
444.491	611.28627
444.704	522.2296
444.917	654.04623
445.13	604.03866
445.343	520.84028
445.556	807.91083
445.769	805.42097
445.982	631.4751
446.195	684.68414
446.408	631.68811
446.621	721.98599
446.834	580.89938
447.047	578.71254
447.26	530.7245
447.473	586.71242
447.686	633.28562
447.899	586.60577
448.111	674.04919
448.324	625.13748
448.537	580.20601
448.75	564.68127
448.963	535.85239
449.176	707.00648
449.388	686.81072
449.601	645.63711
449.814	539.27051
450.027	579.40595
450.239	596.6295
450.452	579.77931
450.665	490.47355
450.878	568.30972
451.09	624.92442
451.303	594.49705
451.516	497.6402
451.728	636.79988
451.941	433.29476
452.154	669.74107
452.366	665.06
452.579	525.70264
452.792	724.95985
453.004	633.55187
453.217	538.46942
453.429	607.23633
453.642	545.7853
453.854	666.07074
454.067	773.40767
454.28	771.44562
454.492	444.43906
454.705	540.92604
454.917	554.06034
455.13	744.07128
455.342	670.5921
455.555	496.30326
455.767	812.94298
455.979	643.18848
456.192	688.56505
456.404	494.8593
456.617	626.25597
456.829	562.27986
457.041	683.03594
457.254	625.98967
457.466	542.47467
457.679	545.35814
457.891	701.95868
458.103	630.78281
458.315	616.02831
458.528	520.25247
458.74	566.65562
458.952	600.25434
459.165	593.11089
459.377	499.03055
459.589	407.13247
459.801	638.82307
460.014	619.9706
460.226	598.06882
460.438	609.58109
460.65	467.8396
460.862	636.95961
461.075	558.70409
461.287	505.44676
461.499	381.64534
461.711	387.2812
461.923	545.99887
462.135	624.44506
462.347	510.8995
462.559	582.87273
462.771	619.2248
462.983	473.35246
463.196	627.16139
463.408	641.75115
463.62	597.26921
463.832	705.62505
464.044	644.67897
464.256	652.71582
464.468	505.66061
464.68	611.39284
464.891	596.25633
465.103	508.92165
465.315	718.69319
465.527	499.88612
465.739	427.0779
465.951	523.72573
466.163	549.14896
466.375	454.77605
466.587	656.28121
466.799	481.91419
467.01	490.90145
467.222	533.07489
467.434	456.43607
467.646	484.58924
467.858	562.11976
468.069	555.28806
468.281	410.13585
468.493	382.61156
468.705	431.84785
468.916	493.46877
469.128	402.09042
469.34	434.90236
469.551	439.45678
469.763	303.54568
469.975	451.34863
470.186	466.44784
470.398	422.95049
470.61	427.39949
470.821	361.23999
471.033	450.7595
471.245	590.55165
471.456	351.46195
471.668	497.10543
471.879	415.23019
472.091	593.11089
472.302	578.60587
472.514	562.86689
472.725	485.44521
472.937	416.62427
473.148	373.2164
473.36	478.65031
473.571	558.97096
473.783	460.93374
473.994	489.1363
474.206	422.14638
474.417	446.42103
474.629	520.62653
474.84	577.5924
475.051	625.61683
475.263	367.41677
475.474	448.77781
475.685	499.99306
475.897	473.03135
476.108	591.45807
476.319	384.75861
476.531	439.83181
476.742	584.41933
476.953	611.76583
477.165	776.64215
477.376	505.39329
477.587	523.29827
477.798	553.41977
478.01	448.45644
478.221	521.64182
478.432	523.03111
478.643	519.4509
478.854	422.73606
479.065	791.32605
479.277	664.79401
479.488	639.08927
479.699	651.27891
479.91	569.48354
480.121	684.68414
480.332	591.45807
480.543	658.3032
480.754	463.39647
480.965	528.10682
481.176	591.51139
481.387	745.66342
481.598	576.36554
481.809	795.93667
482.02	1161.47889
482.231	2552.95783
482.442	5373.09546
482.653	10115.21684
482.864	15444.14972
483.075	23037.8408
483.286	31778.35834
483.497	42397.16185
483.708	50229.63473
483.919	57591.15805
484.13	62946.15223
484.341	63206.54059
484.551	63206.54059
484.762	63206.54059
484.973	63206.54059
485.184	63206.54059
485.395	23998.6802
485.605	7843.92916
485.816	3858.61925
486.027	1902.97928
486.238	1431.13543
486.449	1386.64224
486.659	1152.45278
486.87	968.42846
487.081	973.70177
487.291	874.43578
487.502	800.81161
487.713	714.01899
487.923	766.72564
488.134	687.66131
488.345	969.58865
488.555	794.1349
488.766	643.34818
488.976	816.06785
489.187	779.29314
489.398	775.52867
489.608	792.22703
489.819	641.69792
490.029	625.08421
490.24	822.47559
490.45	798.95709
490.661	763.22501
490.871	685.32213
491.082	560.83893
491.292	607.07646
491.503	719.70231
491.713	766.08919
491.924	673.62372
492.134	644.25312
492.344	644.09343
492.555	693.08334
492.765	750.43937
492.975	744.44279
493.186	778.86899
493.396	785.54866
493.607	540.97944
493.817	828.61745
494.027	649.68227
494.237	603.61228
494.448	622.31444
494.658	743.22211
494.868	560.3586
495.078	708.70662
495.289	839.46897
495.499	655.42981
495.709	567.456
495.919	630.5698
496.129	634.40384
496.34	503.68243
496.55	461.36206
496.76	688.61821
496.97	762.1111
497.18	613.95042
497.39	604.19855
497.6	737.27734
497.81	767.0969
498.021	754.15354
498.231	784.54149
498.441	661.81478
498.651	627.21465
498.861	491.48981
499.071	666.70909
499.281	758.66305
499.491	648.93715
499.701	665.96435
499.911	687.12969
500.121	615.8152
500.331	690.00034
500.54	866.55671
500.75	664.68761
500.96	658.3032
501.17	556.08873
501.38	685.80061
501.59	732.07481
501.8	607.87583
502.01	454.24054
502.219	636.26744
502.429	753.62296
502.639	818.39807
502.849	769.16526
503.059	610.3804
503.268	657.61148
503.478	570.23049
503.688	710.19417
503.898	605.15788
504.107	609.74096
504.317	846.18994
504.527	705.73132
504.736	711.25666
504.946	616.29469
505.156	764.86929
505.365	584.04602
505.575	594.55037
505.785	595.61661
505.994	733.03044
506.204	599.98782
506.413	618.4257
506.623	480.63008
506.832	642.23027
507.042	651.06603
507.251	718.00273
507.461	682.7701
507.67	620.71639
507.88	563.4539
508.089	617.20039
508.299	650.26772
508.508	653.83337
508.718	488.11996
508.927	511.38057
509.137	727.61486
509.346	680.21788
509.555	570.44391
509.765	571.8844
509.974	1066.07485
510.184	701.37415
510.393	582.12607
510.602	599.29486
510.812	743.69977
511.021	619.33134
511.23	836.76964
511.439	532.64756
511.649	584.84596
511.858	681.60035
512.067	647.18072
512.276	671.12398
512.486	1193.10661
512.695	637.54528
512.904	495.71499
513.113	629.71773
513.322	642.01733
513.531	659.36735
513.741	726.55288
513.95	510.68568
514.159	666.70909
514.368	543.16886
514.577	609.42123
514.786	537.13423
514.995	572.04445
515.204	619.2248
515.413	547.06673
515.622	532.43389
515.831	602.22651
516.04	602.43971
516.249	467.41137
516.458	539.91137
516.667	644.51928
516.876	711.15041
517.085	603.29249
517.294	663.73003
517.503	611.39284
517.712	619.2248
517.921	648.13878
518.13	635.78824
518.339	700.09878
518.547	870.7873
518.756	541.78047
518.965	592.89763
519.174	590.87157
519.383	596.25633
519.591	512.93067
519.8	449.84901
520.009	621.51542
520.218	573.48488
520.426	584.15268
520.635	667.71978
520.844	595.19012
521.053	657.07938
521.261	711.25666
521.47	648.03233
521.679	642.92231
521.887	603.66558
522.096	559.66479
522.304	505.2329
522.513	479.77398
522.722	520.25247
522.93	689.4156
523.139	593.85729
523.347	524.04632
523.556	503.14777
523.764	542.52807
523.973	552.67242
524.182	486.72912
524.39	679.84566
524.598	541.56686
524.807	447.76013
525.015	579.88598
525.224	633.87136
525.432	563.50727
525.641	448.51
525.849	553.74005
526.057	577.53906
526.266	659.63339
526.474	461.52267
526.683	514.90826
526.891	630.78281
527.099	536.81377
527.308	608.35545
527.516	489.45725
527.724	647.87266
527.932	479.07838
528.141	686.5449
528.349	797.73836
528.557	607.50279
528.765	531.36553
528.974	459.75584
529.182	530.13688
529.39	552.35212
529.598	518.3821
529.806	480.7906
530.015	639.08927
530.223	517.20638
530.431	467.0902
530.639	443.58195
530.847	471.90744
531.055	554.06034
531.263	571.03078
531.471	393.98918
531.679	417.3213
531.887	577.16567
532.095	603.61228
532.303	679.42027
532.511	549.20235
532.719	515.0686
532.927	565.80186
533.135	607.12975
533.343	708.75974
533.551	602.54631
533.759	571.40424
533.967	689.1498
534.175	584.09935
534.383	734.67618
534.591	697.9199
534.798	647.50008
535.006	504.69827
535.214	547.01334
535.422	487.74551
535.63	644.99835
535.837	464.5207
536.045	476.67041
536.253	579.45928
536.461	583.88603
536.668	554.00696
536.876	645.05158
537.084	704.98745
537.292	642.65614
537.499	716.88733
537.707	611.39284
537.915	708.75974
538.122	723.31364
538.33	730.64132
538.538	621.19581
538.745	680.64326
538.953	743.59363
539.16	649.62905
539.368	551.49798
539.575	558.65072
539.783	588.15219
539.99	774.15003
540.198	607.28963
540.406	583.24605
540.613	579.29927
540.82	535.10462
541.028	647.07427
541.235	636.37393
541.443	736.428
541.65	871.95062
541.858	685.9601
542.065	596.46957
542.272	555.39482
542.48	834.96997
542.687	558.59735
542.895	725.11915
543.102	597.64236
543.309	643.93373
543.516	682.55742
543.724	619.11825
543.931	584.79263
544.138	716.83421
544.346	586.0725
544.553	640.95261
544.76	639.67491
544.967	597.64236
545.174	639.19575
545.382	606.59683
545.589	652.71582
545.796	736.95884
546.003	506.24869
546.21	666.70909
546.417	826.12907
546.624	687.34234
546.832	654.57839
547.039	646.38231
547.246	745.87569
547.453	652.92869
547.66	515.22894
547.867	683.03594
548.074	617.04056
548.281	571.671
548.488	604.19855
548.695	577.00565
548.902	622.2079
549.109	552.61903
549.316	484.42875
549.523	532.91464
549.73	553.04609
549.936	600.20104
550.143	535.95921
550.35	499.99306
550.557	503.46857
550.764	493.73618
550.971	658.19678
551.178	559.98501
551.384	655.32338
551.591	677.87817
551.798	713.80651
552.005	571.35089
552.211	648.13878
552.418	622.10137
552.625	480.73709
552.832	648.08556
553.038	645.7968
553.245	668.67725
553.452	695.31568
553.658	547.86761
553.865	562.06639
554.072	598.01552
554.278	660.11224
554.485	814.10822
554.691	778.44484
554.898	570.23049
555.105	721.50802
555.311	600.78737
555.518	718.26829
555.724	686.81072
555.931	461.46914
556.137	512.50306
556.344	608.24886
556.55	645.21127
556.757	645.74357
556.963	599.13495
557.17	645.15804
557.376	680.96229
557.582	774.52121
557.789	567.13585
557.995	562.81352
558.202	572.9514
558.408	625.9364
558.614	517.58048
558.821	654.73803
559.027	684.09931
559.233	663.46403
559.439	830.31157
559.646	647.3404
559.852	741.47064
560.058	697.06956
560.264	696.80383
560.471	610.59355
560.677	737.27734
560.883	778.92201
561.089	767.73333
561.295	615.54881
561.502	665.85796
561.708	605.9573
561.914	707.59091
562.12	667.29423
562.326	728.25203
562.532	717.04667
562.738	751.44754
562.944	615.60208
563.15	679.31392
563.356	535.53192
563.562	661.76158
563.768	693.08334
563.974	536.4399
564.18	697.3353
564.386	617.99951
564.592	568.52314
564.798	583.08606
565.004	757.54899
565.21	540.39201
565.416	682.2384
565.622	698.66392
565.828	725.54397
566.034	775.5817
566.239	648.35168
566.445	856.71864
566.651	797.15547
566.857	936.08652
567.063	774.99843
567.268	910.58319
567.474	943.42268
567.68	896.58303
567.886	1072.07078
568.091	1124.20661
568.297	1027.02564
568.503	1076.2253
568.708	1148.41135
568.914	1198.19199
569.12	1216.43117
569.325	1105.87245
569.531	1148.30638
569.737	907.57229
569.942	1032.13274
570.148	1199.39771
570.353	1439.11128
570.559	1390.34739
570.765	1233.03846
570.97	1311.21744
571.176	1533.67069
571.381	1184.82183
571.587	954.39778
571.792	1031.9748
571.998	1065.86445
572.203	1096.36051
572.408	1476.6255
572.614	1629.95713
572.819	1454.43339
573.025	1346.17803
573.23	1286.01111
573.435	1289.04504
573.641	1363.46482
573.846	1136.86214
574.051	1334.8412
574.257	1439.47615
574.462	1452.76593
574.667	1320.46991
574.873	1295.26914
575.078	1508.22778
575.283	1422.48027
575.488	1571.99068
575.694	1713.61521
575.899	1303.79308
576.104	1433.58568
576.309	1539.02803
576.514	1561.95878
576.719	1968.20233
576.925	2245.39586
577.13	1980.3715
577.335	1808.46145
577.54	1648.9523
577.745	1357.61629
577.95	1496.51616
578.155	1328.88424
578.36	1237.12376
578.565	1324.49436
578.77	1754.6404
578.975	1850.39265
579.18	1563.98612
579.385	1712.11239
579.59	1981.29955
579.795	1596.6195
580	1274.08248
580.205	1371.66186
580.41	2011.34969
580.615	3080.1037
580.82	3245.18349
581.024	2658.80414
581.229	2519.84017
581.434	2303.31929
581.639	1855.76734
581.844	1475.89635
582.049	1362.26385
582.253	1568.87218
582.458	1380.11832
582.663	1077.80285
582.868	1080.06389
583.072	1128.77567
583.277	1457.09077
583.482	1701.79867
583.686	1736.51472
583.891	1612.92774
584.096	1723.51199
584.3	1923.42146
584.505	1532.00614
584.71	1694.48967
584.914	1719.21154
585.119	1669.59979
585.323	1527.84452
585.528	1147.04662
585.733	1273.08828
585.937	1405.37349
586.142	1111.96728
586.346	1630.68385
586.551	1461.46729
586.755	1542.98062
586.959	1999.80574
587.164	1884.38875
587.368	1533.46262
587.573	1788.85437
587.777	2693.79855
587.982	8863.57094
588.186	18826.22193
588.39	9088.7962
588.595	6074.1171
588.799	11097.88262
589.003	5204.41553
589.208	1996.3524
589.412	1600.775
589.616	1413.19754
589.82	1439.26765
590.025	1054.71156
590.229	1138.59474
590.433	1053.34353
590.637	1058.39448
590.842	1349.3121
591.046	1546.41286
591.25	1285.90649
591.454	953.8702
591.658	1149.77604
591.862	1704.49392
592.067	2627.7754
592.271	2223.68016
592.475	1742.72997
592.679	1867.03176
592.883	1595.16499
593.087	1734.75359
593.291	1414.65787
593.495	1272.30336
593.699	1158.0681
593.903	1613.81051
594.107	2018.61499
594.311	2012.84405
594.515	1796.56358
594.719	1536.42745
594.923	1385.38972
595.127	1624.92163
595.33	1468.23963
595.534	1144.57949
595.738	1538.81999
595.942	1415.9617
596.146	1159.48493
596.35	1437.18261
596.553	1318.17005
596.757	1427.01662
596.961	1882.37439
597.165	1469.17726
597.369	1078.53902
597.572	1216.58837
597.776	1123.36626
597.98	1626.16757
598.183	1903.39233
598.387	1696.25222
598.591	1370.04346
598.794	1316.07916
598.998	1395.14796
599.202	1590.28167
599.405	1762.40656
599.609	1636.03017
599.812	1793.76977
600.016	1760.23215
600.22	1939.31563
600.423	1922.38921
600.627	1715.06617
600.83	1379.90954
601.034	1801.68518
601.237	1989.39354
601.441	1223.24255
601.644	1362.62936
601.847	1728.0711
602.051	1578.85063
602.254	1416.53537
602.458	1625.75226
602.661	1939.52202
602.864	1517.64694
603.068	1454.12075
603.271	1260.78954
603.475	1237.54274
603.678	1317.22916
603.881	1285.488
604.084	1054.71156
604.288	1152.45278
604.491	1554.26446
604.694	1569.33997
604.897	1141.84972
605.101	1269.79153
605.304	1452.45328
605.507	1173.54549
605.71	1045.50271
605.913	1417.73485
606.116	1467.09361
606.32	1425.92168
606.523	1286.01111
606.726	1253.51324
606.929	1358.39962
607.132	1408.03382
607.335	1462.56135
607.538	1223.71407
607.741	1130.4036
607.944	964.73669
608.147	974.86179
608.35	1128.98573
608.553	1085.63706
608.756	1133.18668
608.959	1269.68686
609.162	1543.03263
609.365	1410.27672
609.568	1341.26752
609.771	969.43044
609.973	1314.09272
610.176	1305.57086
610.379	1083.74438
610.582	1063.97079
610.785	1282.71539
610.988	1206.47402
611.19	998.95052
611.393	1023.28701
611.596	908.99854
611.799	950.22974
612.001	1219.9418
612.204	986.35465
612.407	989.20095
612.609	1096.09771
612.812	1262.25511
613.015	1210.50958
613.217	1185.08404
613.42	985.30041
613.623	1045.29219
613.825	1253.46089
614.028	1327.78681
614.23	1073.54332
614.433	963.5236
614.636	1083.84953
614.838	1301.75377
615.041	1396.34801
615.243	855.50192
615.446	806.05669
615.648	743.32826
615.85	917.9245
616.053	702.49006
616.255	986.24922
616.458	883.15889
616.66	859.36355
616.863	728.8361
617.065	870.36426
617.267	921.35697
617.47	907.83642
617.672	826.49969
617.874	818.29215
618.077	791.53805
618.279	891.45708
618.481	977.70898
618.683	702.70261
618.886	707.05961
619.088	1132.189
619.29	1067.28463
619.492	779.1871
619.694	789.47103
619.897	924.52512
620.099	705.46565
620.301	530.83134
620.503	507.0506
620.705	731.91554
620.907	751.39448
621.109	646.91458
621.311	825.54666
621.513	875.65185
621.715	896.84724
621.917	964.26201
622.119	929.54079
622.321	860.9504
622.523	891.98556
622.725	711.25666
622.927	675.32557
623.129	745.92876
623.331	730.16347
623.533	626.14945
623.735	791.75004
623.937	853.22706
624.139	654.41874
624.341	781.51981
624.542	536.974
624.744	584.57932
624.946	735.57864
625.148	647.18072
625.35	747.94534
625.551	628.1733
625.753	500.79514
625.955	621.40888
626.156	741.78909
626.358	732.1279
626.56	639.46195
626.762	834.44063
626.963	716.83421
627.165	666.86867
627.366	745.45114
627.568	737.54276
627.77	678.19723
627.971	804.78523
628.173	720.97694
628.374	633.23237
628.576	648.56458
628.777	874.54152
628.979	525.86292
629.18	502.07841
629.382	495.12671
629.583	739.40059
629.785	720.65829
629.986	502.98737
630.188	563.4539
630.389	589.32528
630.591	681.38767
630.792	457.98891
630.993	411.47655
631.195	472.01448
631.396	503.2547
631.597	523.56543
631.799	527.30545
632	643.24171
632.201	526.82461
632.402	643.66757
632.604	696.32551
632.805	519.39746
633.006	636.05447
633.207	674.42147
633.409	688.45873
633.61	563.02698
633.811	568.89663
634.012	625.03095
634.213	607.98241
634.414	623.96568
634.615	565.58842
634.816	713.54091
635.017	662.93202
635.219	688.51189
635.42	664.90041
635.621	619.54443
635.822	795.35376
636.023	655.64266
636.224	649.52261
636.425	616.88074
636.626	541.19305
636.826	504.05669
637.027	689.09664
637.228	559.0777
637.429	510.95295
637.63	545.35814
637.831	456.22188
638.032	506.89022
638.233	434.36651
638.433	477.36607
638.634	569.21676
638.835	557.36975
639.036	598.01552
639.237	392.05743
639.437	361.72344
639.638	453.49081
639.839	499.24444
640.039	363.12002
640.24	568.46979
640.441	446.20677
640.641	337.05763
640.842	522.55021
641.043	445.56398
641.243	371.7129
641.444	410.83302
641.645	574.87189
641.845	397.04752
642.046	460.07709
642.246	409.27777
642.447	298.64745
642.647	482.34221
642.848	594.39043
643.048	572.8447
643.249	490.84797
643.449	457.88182
643.65	375.95472
643.85	321.78566
644.05	509.88386
644.251	366.66488
644.451	453.16949
644.651	409.70682
644.852	453.54437
645.052	398.71069
645.252	419.94838
645.453	342.91695
645.653	380.0349
645.853	369.51121
646.054	396.51099
646.254	370.04822
646.454	258.03032
646.654	278.7231
646.854	401.07118
647.055	494.5919
647.255	344.09943
647.455	632.06087
647.655	410.45762
647.855	510.68568
648.055	472.6032
648.255	341.51942
648.455	484.37525
648.655	457.29282
648.856	514.69447
649.056	471.21166
649.256	521.05403
649.456	417.48214
649.656	409.27777
649.856	471.85392
650.055	459.27396
650.255	637.54528
650.455	605.63754
650.655	589.91181
650.855	740.83371
651.055	957.35205
651.255	1013.43843
651.455	1075.48909
651.655	827.13503
651.854	788.51698
652.054	621.83503
652.254	742.2137
652.454	972.64717
652.654	966.05522
652.853	1526.96012
653.053	2108.1449
653.253	4006.70382
653.452	10115.06626
653.652	33103.52576
653.852	63206.54059
654.051	63206.54059
654.251	63206.54059
654.451	63206.54059
654.65	63206.54059
654.85	63206.54059
655.049	63206.54059
655.249	63206.54059
655.449	63206.54059
655.648	63206.54059
655.848	63206.54059
656.047	63206.54059
656.247	63206.54059
656.446	63206.54059
656.645	63206.54059
656.845	63206.54059
657.044	63206.54059
657.244	63206.54059
657.443	63206.54059
657.643	63206.54059
657.842	63206.54059
658.041	63206.54059
658.241	63206.54059
658.44	63206.54059
658.639	63206.54059
658.839	63206.54059
659.038	63206.54059
659.237	63206.54059
659.436	63206.54059
659.636	63206.54059
659.835	63206.54059
660.034	63206.54059
660.233	63206.54059
660.432	63206.54059
660.631	63206.54059
660.831	63206.54059
661.03	63206.54059
661.229	4648.47572
661.428	4047.97446
661.627	2545.08865
661.826	2503.94032
662.025	1986.14577
662.224	1843.57013
662.423	1616.97796
662.622	1493.49667
662.821	1402.0348
663.02	1480.11481
663.219	1173.54549
663.418	1358.55629
663.617	1253.61794
663.816	1216.06437
664.015	971.59253
664.214	967.16275
664.412	932.86659
664.611	1022.12849
664.81	918.55821
665.009	1067.60022
665.208	856.71864
665.406	694.09323
665.605	853.38577
665.804	732.65881
666.003	844.23199
666.201	623.53956
666.4	651.33213
666.599	725.86258
666.798	663.09163
666.996	703.81848
667.195	557.85012
667.394	558.33048
667.592	754.6841
667.791	579.83265
667.989	713.85963
668.188	648.99037
668.386	801.02355
668.585	590.39169
668.783	679.52662
668.982	694.99679
669.18	737.22426
669.379	621.036
669.577	513.35826
669.776	506.94368
669.974	648.72425
670.173	573.53823
670.371	527.03832
670.57	513.30481
670.768	568.5765
670.966	631.26209
671.165	644.7322
671.363	591.72466
671.561	610.85998
671.76	701.10845
671.958	735.15396
672.156	604.30515
672.354	504.37748
672.553	511.11331
672.751	362.42174
672.949	453.54437
673.147	598.28205
673.345	411.90556
673.543	571.5643
673.742	346.94792
673.94	394.68672
674.138	448.99205
674.336	450.00969
674.534	417.80384
674.732	623.85915
674.93	475.65366
675.128	398.65705
675.326	409.70682
675.524	392.3794
675.722	524.20661
675.92	410.88665
676.118	372.14248
676.316	471.42575
676.514	456.06124
676.712	324.3674
676.91	446.04608
677.108	421.77113
677.305	535.69215
677.503	445.93894
677.701	435.92047
677.899	349.79614
678.097	419.73393
678.295	355.43803
678.492	350.01109
678.69	530.9916
678.888	386.85184
679.085	587.83224
679.283	370.15563
679.481	250.15884
679.679	351.30075
679.876	370.74633
680.074	413.94328
680.271	341.41192
680.469	334.96089
680.667	478.38276
680.864	399.78366
681.062	479.34592
681.259	459.48813
681.457	261.69575
681.654	424.0762
681.852	295.68659
682.049	339.63803
682.247	305.16029
682.444	306.34429
682.642	425.20187
682.839	292.187
683.037	381.37694
683.234	483.30525
683.431	378.53174
683.629	242.98636
683.826	291.37934
684.023	404.1288
684.221	495.92891
684.418	511.32712
684.615	577.37904
684.813	533.87611
685.01	556.14211
685.207	354.84702
685.404	260.40212
685.601	511.16676
685.799	532.70097
685.996	386.69082
686.193	340.44435
686.39	268.37857
686.587	392.3794
686.784	399.89096
686.981	441.22478
687.179	387.38854
687.376	236.51341
687.573	350.01109
687.77	429.70414
687.967	290.24858
688.164	364.14055
688.361	256.73652
688.558	366.87971
688.755	290.78705
688.952	494.21753
689.148	345.01312
689.345	308.17401
689.542	327.37914
689.739	309.41169
689.936	287.66383
690.133	414.90846
690.33	265.57628
690.526	367.09453
690.723	597.10928
690.92	452.25907
691.117	260.18651
691.314	279.26178
691.51	238.29361
691.707	300.53148
691.904	286.15595
692.1	480.89761
692.297	263.79777
692.494	287.0176
692.69	544.6106
692.887	435.54538
693.084	344.85188
693.28	289.44087
693.477	318.50438
693.673	323.56063
693.87	313.23204
694.066	257.00607
694.263	288.57929
694.459	274.30558
694.656	288.41774
694.852	325.38927
695.049	303.16892
695.245	413.35343
695.442	327.80936
695.638	201.04782
695.834	272.85088
696.031	365.85927
696.227	357.64076
696.423	417.16045
696.62	398.87164
696.816	465.43075
697.012	278.39989
697.209	352.10676
697.405	432.81246
697.601	495.66151
697.797	302.14627
697.994	278.29215
698.19	223.40117
698.386	416.83874
698.582	391.30617
698.778	224.1028
698.974	206.12477
699.17	247.35477
699.367	281.95501
699.563	475.065
699.759	201.26388
699.955	281.6857
700.151	291.75625
700.347	291.64856
700.543	356.02902
700.739	526.29034
700.935	275.11371
701.131	252.90871
701.327	259.05453
701.523	445.51041
701.718	269.83349
701.914	362.20688
702.11	394.31112
702.306	427.88188
702.502	290.24858
702.698	174.02734
702.894	267.83969
703.089	245.5212
703.285	277.16088
703.481	249.67354
703.677	337.11139
703.872	236.6213
704.068	259.16234
704.264	211.68676
704.459	113.78538
704.655	192.45813
704.851	207.36686
705.046	137.1833
705.242	120.2868
705.438	99.91051
705.633	202.77625
705.829	215.73607
706.024	305.64466
706.22	395.59887
706.415	331.30469
706.611	330.76697
706.806	421.12782
707.002	301.17741
707.197	335.82111
707.393	342.05694
707.588	200.39963
707.784	362.36802
707.979	209.52689
708.174	187.757
708.37	214.60232
708.565	303.1151
708.76	241.8537
708.956	300.47766
709.151	257.97641
709.346	212.60465
709.542	168.72827
709.737	213.79247
709.932	375.04198
710.127	336.95011
710.322	199.31929
710.518	238.83305
710.713	178.94701
710.908	131.71474
711.103	253.34004
711.298	363.76457
711.493	198.72508
711.688	184.89271
711.883	209.85089
712.078	399.13989
712.273	351.46195
712.468	120.72017
712.663	257.38343
712.858	310.81075
713.053	307.42061
713.248	330.65943
713.443	256.68261
713.638	185.91956
713.833	167.15999
714.028	278.29215
714.223	406.32795
714.418	520.09216
714.613	235.91998
714.807	445.40328
715.002	198.61704
715.197	240.39735
715.392	87.49302
715.587	182.94698
715.781	234.62518
715.976	183.05508
716.171	380.57172
716.365	252.20779
716.56	316.13733
716.755	144.70758
716.949	239.5343
717.144	315.06133
717.339	207.36686
717.533	279.53111
717.728	343.02445
717.922	132.63527
718.117	110.58828
718.312	337.32643
718.506	248.86469
718.701	472.12152
718.895	489.83168
719.089	318.82715
719.284	312.53258
719.478	199.53536
719.673	89.77089
719.867	308.81976
720.062	237.64628
720.256	209.68889
720.45	196.72629
720.645	127.11164
720.839	253.34004
721.033	301.01593
721.228	164.56401
721.422	298.3783
721.616	187.86508
721.81	286.53292
722.005	285.40198
722.199	340.76688
722.393	171.0535
722.587	137.12916
722.781	295.68659
722.975	349.3125
723.169	266.49244
723.364	259.43186
723.558	160.23684
723.752	266.00742
723.946	429.81133
724.14	257.9225
724.334	253.07046
724.528	243.84931
724.722	185.43316
724.916	378.53174
725.11	269.13298
725.304	285.94053
725.498	346.84043
725.692	237.48444
725.885	322.26976
726.079	451.45574
726.273	253.12437
726.467	205.15266
726.661	200.72373
726.855	293.47921
727.048	382.45053
727.242	173.2704
727.436	261.69575
727.63	190.08064
727.823	319.79542
728.017	149.1454
728.211	207.15085
728.405	350.65592
728.598	213.84646
728.792	208.8789
728.986	315.59933
729.179	278.39989
729.373	228.09637
729.566	287.50227
729.76	296.6018
729.953	275.43696
730.147	356.35138
730.34	284.10941
730.534	537.29445
730.727	354.36346
730.921	333.77805
731.114	366.93342
731.308	271.07281
731.501	286.2098
731.695	245.14369
731.888	327.54047
732.081	218.05741
732.275	294.50216
732.468	307.58205
732.661	319.04232
732.855	161.69734
733.048	198.7791
733.241	127.05748
733.434	374.77352
733.628	354.63211
733.821	372.24987
734.014	306.88245
734.207	371.87399
734.4	190.621
734.594	273.82068
734.787	311.18741
734.98	277.21475
735.173	325.98087
735.366	156.77462
735.559	323.6682
735.752	165.21303
735.945	137.72469
736.138	181.70381
736.331	263.52829
736.524	378.63911
736.717	241.8537
736.91	269.67184
737.103	277.16088
737.296	268.48634
737.489	314.73852
737.682	83.75039
737.875	148.11719
738.067	291.3255
738.26	305.85993
738.453	326.62623
738.646	258.35376
738.839	298.2168
739.031	287.34072
739.224	267.57024
739.417	320.22576
739.61	391.2525
739.802	204.99064
739.995	142.4884
740.188	369.1353
740.38	239.69613
740.573	212.33469
740.765	215.30417
740.958	51.4555
741.151	334.31571
741.343	120.39515
741.536	181.92002
741.728	158.01891
741.921	239.69613
742.113	145.89828
742.306	178.67672
742.498	209.1489
742.691	275.27533
742.883	164.67218
743.076	178.24425
743.268	130.0902
743.46	315.27653
743.653	133.66405
743.845	292.45621
744.037	234.51728
744.23	192.29603
744.422	231.11815
744.614	201.80402
744.807	201.80402
744.999	235.16469
745.191	259.05453
745.383	237.05288
745.575	161.75143
745.768	251.02157
745.96	240.28947
746.152	284.70184
746.344	154.23178
746.536	338.45537
746.728	307.15153
746.92	320.17196
747.112	149.19951
747.304	254.41833
747.496	222.48362
747.688	175.8115
747.88	45.26348
748.072	317.37467
748.264	163.96906
748.456	185.64934
748.648	197.86076
748.84	247.62441
749.032	167.64671
749.224	297.40931
749.416	301.60802
749.608	351.73062
749.799	242.93242
749.991	285.72511
750.183	307.36679
750.375	179.54164
750.567	227.66466
750.758	95.79005
750.95	208.2309
751.142	191.10731
751.333	149.79478
751.525	237.32261
751.717	279.69271
751.908	422.46803
752.1	180.56869
752.292	247.30085
752.483	216.86977
752.675	207.47487
752.866	240.07371
753.058	425.63069
753.249	273.28191
753.441	307.0439
753.632	138.86156
753.824	194.18708
754.015	147.35953
754.207	339.53051
754.398	285.88667
754.589	191.91781
754.781	162.9414
754.972	223.88691
755.164	219.13704
755.355	234.46333
755.546	259.70138
755.738	182.46053
755.929	243.79538
756.12	353.71871
756.311	387.87156
756.503	233.49219
756.694	284.32484
756.885	295.52508
757.076	475.70717
757.267	466.76902
757.458	368.27605
757.65	337.48771
757.841	299.77789
758.032	456.75736
758.223	354.09482
758.414	382.07477
758.605	371.33701
758.796	195.53775
758.987	394.36478
759.178	199.48134
759.369	132.68941
759.56	218.54325
759.751	187.97316
759.942	287.82538
760.133	153.5284
760.324	254.58007
760.514	236.6213
760.705	355.3843
760.896	190.67503
761.087	302.41539
761.278	198.88714
761.468	132.79771
761.659	286.47907
761.85	293.80225
762.041	105.43962
762.231	332.7027
762.422	159.31723
762.613	356.45883
762.803	198.94116
762.994	448.24219
763.185	151.09349
763.375	281.79342
763.566	192.45813
763.757	214.92625
763.947	214.38636
764.138	294.44832
764.328	347.27037
764.519	400.64201
764.709	244.60437
764.9	276.40668
765.09	262.12694
765.281	235.16469
765.471	156.45002
765.661	154.28589
765.852	188.24336
766.042	233.22242
766.232	106.79463
766.423	168.24157
766.613	221.72798
766.803	202.99229
766.994	262.12694
767.184	227.88051
767.374	420.59172
767.564	377.0822
767.755	231.65773
767.945	152.60857
768.135	179.81192
768.325	330.33679
768.515	253.98702
768.706	224.6425
768.896	300.31617
769.086	301.44654
769.276	282.49362
769.466	210.33686
769.656	223.02336
769.846	245.79085
770.036	300.80062
770.226	277.59185
770.416	236.08182
770.606	298.27063
770.796	414.58674
770.986	299.0781
771.176	189.4322
771.366	263.95946
771.555	275.54471
771.745	122.99527
771.935	263.09711
772.125	210.66085
772.315	185.10889
772.504	332.75647
772.694	134.63866
772.884	292.72543
773.074	107.71599
773.263	234.89494
773.453	200.45365
773.643	349.25876
773.832	331.03583
774.022	337.27267
774.212	211.74076
774.401	151.03937
774.591	57.75468
774.781	102.18734
774.97	263.90556
775.16	116.92793
775.349	134.63866
775.539	140.21491
775.728	93.94648
775.918	261.42625
776.107	422.2536
776.297	677.66546
776.486	1319.37226
776.675	1648.12207
776.865	1177.16476
777.054	490.95494
777.243	329.90661
777.433	329.53019
777.622	339.53051
777.811	277.64572
778.001	323.02277
778.19	200.23758
778.379	117.30717
778.568	296.54796
778.758	182.78483
778.947	228.15033
779.136	275.59858
779.325	265.4685
779.514	73.17061
779.703	345.3356
779.892	127.76153
780.082	206.12477
780.271	92.64507
780.46	265.4146
780.649	275.43696
780.838	203.37037
781.027	115.3567
781.216	119.52838
781.405	80.92952
781.594	293.42537
781.783	327.54047
781.971	357.21097
782.16	160.50731
782.349	398.76434
782.538	118.11983
782.727	316.51392
782.916	150.7147
783.105	354.79329
783.293	203.64042
783.482	346.84043
783.671	271.55775
783.86	237.59233
784.048	116.92793
784.237	33.14688
784.426	161.85961
784.614	212.65865
784.803	211.03882
784.992	51.12964
785.18	176.244
785.369	222.75349
785.557	153.85304
785.746	267.83969
785.935	213.30655
786.123	203.58641
786.312	72.84501
786.5	250.3206
786.689	198.56302
786.877	188.94587
787.065	276.24506
787.254	-7.37242
787.442	76.48063
787.631	196.078
787.819	235.11074
788.007	287.55612
788.196	265.79185
788.384	306.23666
788.572	357.2647
788.761	111.78046
788.949	156.01721
789.137	207.25886
789.325	157.31562
789.513	122.83277
789.702	204.55857
789.89	266.54633
790.078	123.69943
790.266	96.98288
790.454	164.78035
790.642	123.32027
790.83	323.82956
791.018	169.70165
791.207	185.32507
791.395	312.69399
791.583	109.17927
791.771	325.06658
791.959	178.02802
792.146	127.92401
792.334	101.64525
792.522	183.43342
792.71	192.67425
792.898	178.13614
793.086	309.14263
793.274	135.18009
793.462	331.41223
793.65	343.0782
793.837	121.20771
794.025	282.33204
794.213	78.59666
794.401	328.93866
794.588	155.58439
794.776	80.60402
794.964	37.1139
795.151	292.67158
795.339	218.43528
795.527	140.32318
795.714	37.98331
795.902	150.82293
796.089	131.06494
796.277	59.49213
796.465	294.71752
796.652	192.78232
796.84	130.68588
797.027	235.75813
797.215	138.96983
797.402	301.44654
797.59	340.71312
797.777	151.52638
797.964	67.30925
798.152	107.06562
798.339	311.45645
798.526	61.28376
798.714	75.50394
798.901	158.01891
799.088	276.67604
799.276	150.55236
799.463	187.97316
799.65	108.04117
799.837	176.94681
800.025	62.20667
800.212	229.66126
800.399	177.97396
800.586	92.26548
800.773	135.45081
800.96	104.8976
801.148	249.67354
801.335	217.73351
801.522	305.91375
801.709	81.03802
801.896	230.74045
802.083	149.74066
802.27	134.58452
802.457	149.74066
802.644	130.57757
802.831	153.79893
803.018	95.57317
803.204	134.6928
803.391	170.67499
803.578	119.47421
803.765	161.21051
803.952	268.00135
804.139	164.9426
804.326	210.66085
804.512	161.85961
804.699	292.24084
804.886	128.19479
805.073	85.32344
805.259	182.40648
805.446	489.99215
805.633	241.8537
805.819	320.38713
806.006	272.09656
806.192	182.83888
806.379	64.26953
806.566	101.10316
806.752	210.66085
806.939	116.81957
807.125	57.5375
807.312	178.02802
807.498	241.36826
807.685	248.81076
807.871	128.03232
808.058	265.68407
808.244	220.05469
808.43	258.51547
808.617	250.59021
808.803	228.90581
808.99	134.25965
809.176	162.50869
809.362	166.40285
809.549	148.55012
809.735	196.45617
809.921	37.76596
810.107	217.30164
810.293	140.05251
810.48	246.49193
810.666	195.80788
810.852	202.39816
811.038	119.04081
811.224	149.30774
811.41	187.00042
811.597	325.12036
811.783	42.22126
811.969	121.96609
812.155	13.95552
812.341	171.32386
812.527	168.29565
812.713	207.20485
812.899	103.37989
813.085	138.3202
813.271	195.53775
813.456	259.9709
813.642	81.09227
813.828	145.19469
814.014	289.33318
814.2	193.59277
814.386	152.60857
814.572	58.40624
814.757	231.49586
814.943	339.31549
815.129	205.69272
815.315	198.13086
815.5	179.54164
815.686	263.3666
815.872	27.27677
816.057	109.61282
816.243	305.96757
816.429	118.22818
816.614	138.96983
816.8	95.03095
816.985	148.38777
817.171	187.91912
817.356	207.52887
817.542	182.24433
817.727	237.37655
817.913	75.50394
818.098	152.71679
818.284	80.92952
818.469	136.42535
818.655	124.89104
818.84	282.81679
819.025	56.39723
819.211	291.70241
819.396	320.44092
819.581	82.123
819.767	107.11982
819.952	217.35563
820.137	242.66275
820.322	230.68649
820.508	432.91964
820.693	201.69599
820.878	170.35054
821.063	202.93828
821.248	287.87923
821.433	106.95722
821.618	173.97328
821.804	128.46557
821.989	109.01669
822.174	212.2267
822.359	328.72356
822.544	35.32066
822.729	231.49586
822.914	52.70459
823.099	136.26293
823.284	144.54521
823.469	128.46557
823.653	219.89275
823.838	200.39963
824.023	165.91611
824.208	142.8673
824.393	246.33014
824.578	226.42345
824.762	19.06732
824.947	143.19206
825.132	180.0822
825.317	123.04944
825.501	191.48555
825.686	142.00124
825.871	110.10055
826.056	205.04464
826.24	223.07733
826.425	280.93161
826.609	45.20916
826.794	35.64672
826.979	163.8068
827.163	148.55012
827.348	85.2692
827.532	81.96026
827.717	140.26905
827.901	165.21303
828.086	185.86552
828.27	129.87359
828.455	206.88083
828.639	252.15387
828.823	223.725
829.008	89.87935
829.192	99.36838
829.376	204.28853
829.561	77.62005
829.745	97.25397
829.929	52.7589
830.114	163.26593
830.298	369.40381
830.482	136.26293
830.666	227.23294
830.85	104.51818
831.035	166.24061
831.219	26.5701
831.403	49.50028
831.587	56.39723
831.771	312.64019
831.955	166.40285
832.139	115.57342
832.323	181.75786
832.507	40.97168
832.691	96.00693
832.875	6.88439
833.059	43.63376
833.243	-26.59323
833.427	127.59906
833.611	124.99937
833.795	50.53222
833.979	188.83779
834.163	57.91758
834.346	229.22958
834.53	139.45704
834.714	221.83593
834.898	129.60282
835.082	122.83277
835.265	224.1028
835.449	75.99229
835.633	14.39061
835.816	130.74003
836	40.53703
836.184	166.45693
836.367	215.30417
836.551	199.0492
836.735	251.29117
836.918	-5.46744
837.102	149.68655
837.285	111.94303
837.469	149.95712
837.652	244.4965
837.836	94.59717
838.019	107.87858
838.203	157.09923
838.386	61.98951
838.569	64.7038
838.753	334.53077
838.936	55.41981
839.12	115.13997
839.303	163.53637
839.486	183.75772
839.669	56.34293
839.853	122.72444
840.036	117.63224
840.219	111.23857
840.402	13.68359
840.586	151.90515
840.769	174.67614
840.952	13.57482
841.135	267.13913
841.318	80.98377
841.501	44.50296
841.684	3.78337
841.868	241.63795
842.051	129.71113
842.234	190.02661
842.417	63.94383
842.6	188.08124
842.783	161.53506
842.966	187.05446
843.149	399.24718
843.331	200.77774
843.514	532.05997
843.697	662.98522
843.88	660.43147
844.063	449.95613
844.246	277.21475
844.429	171.16165
844.611	153.96125
844.794	191.86378
844.977	176.244
845.16	229.82314
845.342	198.88714
845.525	179.05513
845.708	22.32966
845.89	148.65836
846.073	29.83151
846.256	138.04951
846.438	84.99799
846.621	332.59516
846.803	111.45533
846.986	35.97277
847.168	95.03095
847.351	202.34415
847.533	170.13425
847.716	241.15251
847.898	271.18058
848.081	-1.3858
848.263	104.73499
848.446	69.91446
848.628	192.99844
848.81	75.72099
848.993	50.9124
849.175	49.50028
849.357	97.3624
849.539	118.01148
849.722	39.07003
849.904	34.88592
850.086	153.63662
850.268	301.44654
850.451	319.79542
850.633	188.08124
850.815	74.36443
850.997	341.35816
851.179	85.05224
851.361	153.79893
851.543	110.15475
851.725	198.02282
851.907	74.52722
852.089	201.15585
852.271	105.98163
852.453	283.30153
852.635	183.43342
852.817	120.82852
852.999	130.57757
853.181	90.36744
853.363	124.62023
853.545	135.72152
853.727	107.01142
853.908	130.0902
854.09	181.27139
854.272	322.10839
854.454	108.96249
854.636	219.46092
854.817	64.64951
854.999	188.94587
855.181	183.91986
855.362	136.04636
855.544	69.10036
855.726	198.61704
855.907	131.87719
856.089	99.74787
856.27	144.49108
856.452	124.83688
856.634	238.34756
856.815	163.91498
856.997	217.62554
857.178	81.36352
857.36	33.20122
857.541	17.54476
857.722	80.92952
857.904	163.96906
858.085	107.06562
858.267	190.83714
858.448	112.59328
858.629	179.27135
858.811	27.98343
858.992	189.64835
859.173	176.244
859.354	156.01721
859.536	287.82538
859.717	-6.28384
859.898	105.16861
860.079	110.58828
860.26	157.74842
860.441	206.66482
860.623	116.54867
860.804	89.39126
860.985	190.02661
861.166	106.74043
861.347	-8.8965
861.528	8.02677
861.709	225.99172
861.89	139.67358
862.071	210.71484
862.252	124.07859
862.433	44.23134
862.614	380.19594
862.794	71.54258
862.975	179.70381
863.156	351.99929
863.337	138.59088
863.518	209.3109
863.699	143.57095
863.879	210.76884
864.06	102.24155
864.241	195.86191
864.422	130.84833
864.602	63.45526
864.783	276.02957
864.964	72.73648
865.144	101.59104
865.325	97.52506
865.506	164.40175
865.686	87.00488
865.867	175.86556
866.047	133.93478
866.228	172.67564
866.408	66.33224
866.589	161.85961
866.769	210.93083
866.95	120.44932
867.13	89.82512
867.31	132.68941
867.491	163.26593
867.671	4.70827
867.852	57.5375
868.032	221.78195
868.212	170.13425
868.393	224.91235
868.573	70.89134
868.753	77.24025
868.933	127.70738
869.113	124.34941
869.294	103.5425
869.474	209.63489
869.654	108.8541
869.834	144.54521
870.014	132.906
870.194	37.16824
870.374	190.24275
870.555	109.17927
870.735	107.4992
870.915	173.91921
871.095	105.33122
871.275	172.08086
871.455	195.15957
871.634	65.3009
871.814	218.27334
871.994	148.1713
872.174	164.18541
872.354	293.31768
872.534	128.84466
872.714	91.23513
872.894	98.06722
873.073	141.5682
873.253	198.72508
873.433	63.23812
873.613	-11.83606
873.792	185.10889
873.972	102.78362
874.152	90.31321
874.331	173.59481
874.511	275.70633
874.691	61.44662
874.87	88.1981
875.05	88.46927
875.229	82.2315
875.409	177.109
875.588	56.45153
875.768	169.16089
875.947	335.65982
876.127	237.32261
876.306	136.10051
876.486	104.24716
876.665	132.03963
876.844	124.67439
877.024	306.12902
877.203	174.24361
877.382	103.59671
877.562	64.26953
877.741	91.77742
877.92	180.78491
878.1	206.71882
878.279	67.25498
878.458	81.14652
878.637	105.49382
878.816	196.56422
878.996	149.84889
879.175	151.25582
879.354	93.13311
879.533	220.70242
879.712	116.00687
879.891	114.43559
880.07	229.17561
880.249	165.42936
880.428	113.94793
880.607	246.65372
880.786	30.70116
880.965	259.43186
881.144	179.54164
881.323	29.6141
881.502	118.76994
881.68	88.30657
881.859	80.92952
882.038	170.51277
882.217	118.55324
882.396	-0.29747
882.574	79.79024
882.753	129.00713
882.932	102.621
883.111	236.40551
883.289	139.40291
883.468	128.08648
883.647	123.80776
883.825	172.67564
884.004	190.99924
884.182	137.99537
884.361	103.05465
884.539	59.38354
884.718	201.20986
884.896	19.44795
885.075	101.64525
885.253	242.01551
885.432	118.87829
885.61	50.15204
885.789	62.20667
885.967	83.31643
886.145	222.48362
886.324	146.7101
886.502	88.1981
886.68	201.10183
886.859	67.52636
887.037	202.07409
887.215	131.93134
887.393	262.71983
887.572	20.58979
887.75	179.81192
887.928	216.006
888.106	205.20667
888.284	250.75197
888.462	181.10923
888.64	104.08455
888.819	158.61398
888.997	177.86584
889.175	67.03786
889.353	43.14483
889.531	147.46777
889.709	100.34421
889.887	87.70997
890.065	215.03423
890.242	205.80074
890.42	234.19357
890.598	113.51445
890.776	202.66822
890.954	108.74571
891.132	56.50583
891.309	69.86018
891.487	170.78313
891.665	118.06566
891.843	114.76069
892.02	46.56718
892.198	151.09349
892.376	170.35054
892.553	219.56888
892.731	295.30973
892.909	165.69978
893.086	231.98146
893.264	128.84466
893.441	109.88378
893.619	106.19843
893.797	147.14306
893.974	168.24157
894.151	150.93115
894.329	81.74326
894.506	32.00557
894.684	95.79005
894.861	154.77283
895.039	96.87444
895.216	65.62659
895.393	160.07456
895.571	-18.85966
895.748	65.35519
895.925	315.81453
896.102	206.82683
896.28	61.22947
896.457	32.16862
896.634	88.57774
896.811	33.03818
896.988	91.56051
897.166	122.67027
897.343	77.13173
897.52	214.65631
897.697	89.98782
897.874	233.22242
898.051	220.37856
898.228	104.35557
898.405	35.86408
898.582	36.40749
898.759	90.31321
898.936	225.61394
899.113	206.12477
899.29	190.29679
899.467	237.26866
899.643	232.62893
899.82	199.48134
899.997	231.65773
900.174	-19.78539
900.351	194.24111
900.527	148.92894
900.704	116.81957
900.881	308.5507
901.058	74.74427
901.234	147.41365
901.411	204.18051
901.588	144.7617
901.764	177.3793
901.941	220.64845
902.117	127.97816
902.294	91.50628
902.471	248.27152
902.647	70.61999
902.824	71.37977
903	150.82293
903.176	109.55863
903.353	248.16367
903.529	67.63492
903.706	155.53028
903.882	103.21727
904.058	-12.32601
904.235	17.59914
904.411	21.78596
904.587	121.31605
904.764	121.69524
904.94	73.659
905.116	136.96675
905.292	168.8905
905.469	167.70079
905.645	119.74507
905.821	197.42858
905.997	64.21525
906.173	38.52668
906.349	85.75737
906.525	101.59104
906.702	116.11523
906.878	47.54492
907.054	64.16096
907.23	151.52638
907.406	84.45557
907.582	244.60437
907.757	104.9518
907.933	95.89849
908.109	171.37793
908.285	131.17324
908.461	164.18541
908.637	19.28482
908.813	79.35622
908.988	139.83598
909.164	150.82293
909.34	141.45994
909.516	75.12411
909.691	60.4151
909.867	199.31929
910.043	161.85961
910.219	189.8645
910.394	246.49193
910.57	174.56801
910.745	254.95746
910.921	233.49219
911.097	11.77999
911.272	-1.49463
911.448	220.97231
911.623	49.1744
911.799	19.50232
911.974	-20.00321
912.149	72.46514
912.325	118.06566
912.5	142.1095
912.676	75.01559
912.851	53.41058
913.026	203.69443
913.202	11.56243
913.377	58.40624
913.552	38.25499
913.727	294.28681
913.903	129.81944
914.078	101.64525
914.253	167.80894
914.428	147.08894
914.603	-46.31876
914.779	24.55869
914.954	110.37151
915.129	191.37748
915.304	158.72217
915.479	125.48683
915.654	137.39986
915.829	186.40595
916.004	15.85897
916.179	193.32262
916.354	38.20066
916.529	204.82861
916.704	101.32
916.879	186.8383
917.053	245.95264
917.228	59.60072
917.403	178.51455
917.578	256.03569
917.753	109.01669
917.927	19.28482
918.102	84.40132
918.277	69.31745
918.452	110.80504
918.626	66.1694
918.801	204.45056
918.976	130.90248
919.15	67.68919
919.325	192.4041
919.499	164.67218
919.674	161.48097
919.849	114.0563
920.023	213.41454
920.198	139.61944
920.372	125.37851
920.547	162.56278
920.721	16.07649
920.895	143.8957
921.07	101.10316
921.244	210.66085
921.419	217.57156
921.593	122.77861
921.767	143.94983
921.942	173.00005
922.116	-20.82006
922.29	85.2692
922.464	112.21397
922.639	45.53509
922.813	40.91735
922.987	167.86302
923.161	30.10328
923.335	146.9807
923.509	143.57095
923.683	140.26905
923.858	152.22981
924.032	284.86341
924.206	186.51404
924.38	-29.64372
924.554	55.20261
924.728	90.53014
924.902	303.22274
925.075	162.83322
925.249	101.32
925.423	227.39483
925.597	153.14965
925.771	113.62282
925.945	97.14553
926.119	298.43213
926.292	177.6496
926.466	137.02089
926.64	128.79051
926.814	199.85947
926.987	-9.0598
927.161	13.57482
927.335	1.77023
927.508	200.88577
927.682	-60.16826
927.856	44.66593
928.029	192.45813
928.203	193.32262
928.376	196.78031
928.55	37.33126
928.723	16.29402
928.897	148.22542
929.07	124.89104
929.244	213.09059
929.417	-41.79474
929.59	129.33205
929.764	80.0615
929.937	192.51216
930.111	226.85518
930.284	-29.53477
930.457	-5.57629
930.63	81.30927
930.804	128.35726
930.977	112.48491
931.15	131.33569
931.323	281.30865
931.497	94.97673
931.67	130.03605
931.843	224.80441
932.016	-4.59664
932.189	121.5869
932.362	173.59481
932.535	206.66482
932.708	151.09349
932.881	85.10648
933.054	165.91611
933.227	216.70781
933.4	17.21849
933.573	109.61282
933.746	60.4151
933.919	161.37279
934.092	123.26611
934.264	112.75584
934.437	99.91051
934.61	45.69805
934.783	96.71179
934.956	23.36265
935.128	133.7182
935.301	240.93675
935.474	66.33224
935.646	29.34233
935.819	91.83165
935.992	145.14057
936.164	21.02477
936.337	66.11512
936.51	91.99434
936.682	94.70561
936.855	40.70002
937.027	273.22803
937.2	148.11719
937.372	48.19672
937.545	114.16467
937.717	98.93467
937.889	78.48815
938.062	211.36279
938.234	166.34877
938.406	61.0123
938.579	133.55576
938.751	193.6468
938.923	158.2894
939.096	251.6686
939.268	160.50731
939.44	137.56227
939.612	151.09349
939.784	150.66059
939.957	173.64887
940.129	177.27118
940.301	129.06128
940.473	131.22739
940.645	202.66822
940.817	220.91833
940.989	107.66179
941.161	78.59666
941.333	182.94698
941.505	69.80591
941.677	128.51973
941.849	40.97168
942.021	138.48261
942.193	19.1217
942.365	14.55376
942.537	143.24619
942.708	205.74673
942.88	158.83037
943.052	14.28184
943.224	42.22126
943.395	78.48815
943.567	109.7754
943.739	151.09349
943.911	26.73318
944.082	89.33702
944.254	258.62329
944.425	-33.40285
944.597	89.66242
944.769	138.26606
944.94	130.57757
945.112	277.96894
945.283	261.21064
945.455	39.72204
945.626	163.59046
945.798	64.10668
945.969	130.14436
946.14	180.0822
946.312	158.2353
946.483	72.79074
946.655	119.20334
946.826	138.80742
946.997	190.94521
947.168	-3.88913
947.34	58.73201
947.511	182.29838
947.682	99.74787
947.853	51.61843
948.025	192.45813
948.196	52.65029
948.367	135.8298
948.538	30.37504
948.709	146.27713
948.88	86.57097
949.051	142.00124
949.222	76.04655
949.393	143.84158
949.564	112.81003
949.735	59.87218
949.906	33.74469
950.077	69.69737
950.248	166.67326
950.419	41.46065
950.59	31.62512
950.761	25.80904
950.931	224.04883
951.102	199.31929
951.273	101.86209
951.444	141.5682
951.614	187.64892
951.785	75.61246
951.956	121.37022
952.126	222.1058
952.297	364.8925
952.468	50.58653
952.638	53.13905
952.809	81.47202
952.98	69.53455
953.15	96.06115
953.321	25.53723
953.491	19.71982
953.662	124.40357
953.832	46.13262
954.002	52.65029
954.173	-41.95825
954.343	155.909
954.514	-10.03962
954.684	33.03818
954.854	119.58255
955.025	81.41777
955.195	106.95722
955.365	100.45263
955.535	58.35194
955.706	229.82314
955.876	132.906
956.046	209.95888
956.216	152.825
956.386	161.42688
956.557	151.41815
956.727	25.10233
956.897	120.61183
957.067	85.10648
957.237	76.80618
957.407	183.48747
957.577	116.87375
957.747	78.81367
957.917	73.11634
958.087	22.65587
958.257	154.71873
958.427	98.12144
958.596	-10.80173
958.766	214.7103
958.936	-75.60772
959.106	215.52012
959.276	76.20933
959.445	39.88504
959.615	162.40051
959.785	174.13548
959.955	296.17112
960.124	130.84833
960.294	177.9199
960.464	28.20085
960.633	43.0905
960.803	74.20164
960.972	122.72444
961.142	25.53723
961.311	93.89226
961.481	110.91342
961.65	159.47952
961.82	150.01123
961.989	305.7523
962.159	122.72444
962.328	237.64628
962.498	229.55334
962.667	-28.71764
962.836	60.4694
963.006	147.8466
963.175	104.9518
963.344	149.03717
963.513	63.2924
963.683	-21.74586
963.852	73.60473
964.021	88.95739
964.19	38.25499
964.359	66.27796
964.528	151.1476
964.698	10.42019
964.867	104.62659
965.036	108.09537
965.205	275.70633
965.374	148.33366
965.543	149.79478
965.712	84.78102
965.881	100.66947
966.05	30.75551
966.219	116.00687
966.387	160.12865
966.556	156.01721
966.725	100.28999
966.894	178.40643
967.063	67.41781
967.232	176.29807
967.4	9.11472
967.569	50.20635
967.738	258.24594
967.906	13.68359
968.075	160.99415
968.244	14.88007
968.412	46.83878
968.581	168.62012
968.75	80.0615
968.918	78.32538
969.087	57.64609
969.255	129.81944
969.424	154.98925
969.592	179.97409
969.761	81.03802
969.929	127.38243
970.098	165.86203
970.266	-34.87396
970.434	55.52842
970.603	139.18637
970.771	155.25977
970.939	97.52506
971.108	212.9826
971.276	34.1251
971.444	166.24061
971.612	-75.33486
971.781	88.41504
971.949	400.91024
972.117	111.5637
972.285	239.21065
972.453	-28.66317
972.621	44.66593
972.789	49.1744
972.957	225.39807
973.125	37.76596
973.293	87.81844
973.461	121.37022
973.629	233.11452
973.797	52.43306
973.965	164.72627
974.133	53.6821
974.301	120.61183
974.469	10.74655
974.637	109.39604
974.805	267.08524
974.972	139.56531
975.14	217.46359
975.308	100.01893
975.476	7.75478
975.643	195.05152
975.811	32.11427
975.979	311.45645
976.146	94.81406
976.314	189.4322
976.482	134.3138
976.649	34.77723
976.817	140.21491
976.984	184.78461
977.152	51.02102
977.319	206.12477
977.487	223.23925
977.654	150.2818
977.822	-5.24973
977.989	106.95722
978.156	94.54295
978.324	109.7754
978.491	67.58064
978.658	-32.64008
978.826	146.76422
978.993	138.37433
979.16	118.39071
979.328	112.81003
979.495	168.83643
979.662	18.79544
979.829	59.49213
979.996	206.71882
980.163	181.10923
980.33	8.95153
980.498	63.50955
980.665	172.40529
980.832	11.0729
980.999	136.75019
981.166	85.48617
981.333	203.26235
981.5	140.53971
981.667	396.99386
981.833	-5.46744
982	207.90689
982.167	30.48375
982.334	78.97644
982.501	87.00488
982.668	117.253
982.834	-22.83508
983.001	214.54833
983.168	218.48926
983.335	62.09809
983.501	89.93359
983.668	70.34863
983.835	62.53239
984.001	191.53958
984.168	22.32966
984.334	174.02734
984.501	92.9162
984.668	88.30657
984.834	0.62758
985.001	-36.01821
985.167	205.4767
985.334	0.79082
985.5	61.71807
985.666	14.11868
985.833	-21.36465
985.999	93.07888
986.165	126.51589
986.332	223.61706
986.498	107.39081
986.664	122.77861
986.831	105.33122
986.997	81.30927
987.163	-5.24973
987.329	75.39542
987.495	-38.57935
987.662	196.67227
987.828	24.88487
987.994	163.37411
988.16	183.32533
988.326	114.81487
988.492	62.74954
988.658	181.75786
988.824	138.53674
988.99	52.37875
989.156	32.27731
989.322	299.0781
989.488	134.3138
989.654	43.47079
989.82	103.10886
989.985	229.01373
990.151	158.45169
990.317	278.29215
990.483	3.40252
990.648	168.07934
990.814	120.61183
990.98	145.89828
991.146	146.81834
991.311	172.78378
991.477	156.39592
991.643	-17.60725
991.808	29.83151
991.974	-17.49835
992.139	100.99474
992.305	120.666
992.47	39.9937
992.636	161.75143
992.801	179.32541
992.967	117.46971
993.132	93.89226
993.298	356.72745
993.463	65.46375
993.628	105.71063
993.794	78.16261
993.959	212.71264
994.124	15.58705
994.29	119.09499
994.455	195.4297
994.62	137.12916
994.785	201.80402
994.95	59.16637
995.116	187.43275
995.281	100.50684
995.446	94.10916
995.611	-19.62202
995.776	36.19013
995.941	170.29647
996.106	69.64309
996.271	103.27148
996.436	157.96481
996.601	208.5009
996.766	62.26095
996.931	156.61232
997.096	114.00212
997.261	15.53267
997.425	196.24008
997.59	74.58149
997.755	112.43072
997.92	82.01451
998.085	74.36443
998.249	51.61843
998.414	-54.98746
998.579	-7.48128
998.744	88.46927
998.908	194.88944
999.073	206.71882
999.237	169.64757
999.402	39.23303
999.567	112.70166
999.731	116.11523
999.896	-38.68834
1000.06	214.38636
1000.225	129.76528
1000.389	113.83956
1000.553	179.70381
1000.718	165.69978
1000.882	-48.4993
1001.047	91.61474
1001.211	70.94561
1001.375	258.46157
1001.54	41.46065
1001.704	23.25391
1001.868	239.10276
1002.032	256.19743
1002.197	139.67358
1002.361	44.28566
1002.525	123.32027
1002.689	155.909
1002.853	35.64672
1003.017	27.65728
1003.181	53.84502
1003.345	91.77742
1003.509	200.2916
1003.673	147.08894
1003.837	178.02802
1004.001	91.99434
1004.165	68.06913
1004.329	161.58915
1004.493	109.17927
1004.657	105.54803
1004.821	34.50551
1004.985	150.11946
1005.149	112.64747
1005.312	131.49814
1005.476	81.20077
1005.64	313.33965
1005.804	77.18599
1005.967	173.81108
1006.131	152.93322
1006.295	175.59524
1006.458	135.77566
1006.622	100.88632
1006.785	124.24108
1006.949	222.48362
1007.113	83.85888
1007.276	96.00693
1007.44	186.51404
1007.603	5.25232
1007.767	106.74043
1007.93	67.52636
1008.093	74.63575
1008.257	122.83277
1008.42	-14.34038
1008.584	165.10486
1008.747	102.45838
1008.91	127.65322
1009.073	13.35727
1009.237	99.91051
1009.4	162.18415
1009.563	-52.26114
1009.726	91.23513
1009.889	351.99929
1010.053	158.2894
1010.216	86.78793
1010.379	180.62274
1010.542	286.2098
1010.705	157.36972
1010.868	188.83779
1011.031	165.10486
1011.194	94.10916
1011.357	135.39666
1011.52	48.25104
1011.683	75.2869
1011.846	123.10361
1012.009	146.87246
1012.171	120.77435
1012.334	146.22301
1012.497	194.67333
1012.66	65.84372
1012.823	106.90302
1012.985	262.18084
1013.148	168.02526
1013.311	100.83211
1013.473	77.94559
1013.636	27.22241
1013.799	180.56869
1013.961	203.80245
1014.124	112.37653
1014.286	170.89128
1014.449	8.84274
1014.612	227.71862
1014.774	41.40632
1014.936	114.16467
1015.099	-26.70217
1015.261	-8.62434
1015.424	111.88884
1015.586	135.28838
1015.748	57.75468
1015.911	-2.31092
1016.073	370.10192
1016.235	181.86596
1016.398	147.63013
1016.56	221.02629
1016.722	5.52434
1016.884	56.45153
1017.047	175.54118
1017.209	160.83187
1017.371	-3.34491
1017.533	49.33734
1017.695	213.46853
1017.857	163.53637
1018.019	227.12501
1018.181	184.13605
1018.343	92.10279
1018.505	114.76069
1018.667	-51.49783
1018.829	50.69515
1018.991	136.04636
1019.153	154.28589
1019.315	-45.55562
1019.477	39.9937
1019.638	62.20667
1019.8	11.0729
1019.962	142.43427
1020.124	61.98951
1020.285	80.17001
1020.447	125.27018
1020.609	101.97051
1020.77	42.8732
1020.932	310.59552
1021.094	47.16469
1021.255	33.96207
1021.417	274.03619
1021.578	25.48287
1021.74	153.09554
1021.901	103.5425
1022.063	68.99181
1022.224	185.0008
1022.386	124.40357
1022.547	136.75019
1022.709	153.25787
1022.87	183.27128
1023.031	148.06307
1023.193	40.91735
1023.354	147.08894
1023.515	151.74282
1023.676	172.51343
1023.838	92.86198
1023.999	108.09537
1024.16	152.93322
1024.321	185.21698
1024.482	132.09378
1024.644	268.80966
1024.805	177.16306
1024.966	129.71113
1025.127	29.77716
1025.288	106.30683
1025.449	242.23126
1025.61	132.74356
1025.771	172.51343
1025.932	228.90581
1026.093	191.26941
1026.253	104.8434
1026.414	-70.53296
1026.575	61.5552
1026.736	17.7079
1026.897	89.39126
1027.058	173.48667
1027.218	103.10886
1027.379	2.74962
1027.54	158.61398
1027.7	108.20376
1027.861	155.15156
1028.022	143.19206
1028.182	105.49382
1028.343	129.65698
1028.504	74.47296
1028.664	61.71807
1028.825	138.91569
1028.985	130.95663
1029.146	43.47079
1029.306	21.51411
1029.466	262.07304
1029.627	203.74844
1029.787	104.9518
1029.948	77.2945
1030.108	103.97614
1030.268	204.1265
1030.429	43.68809
1030.589	110.37151
1030.749	61.39233
1030.909	129.54867
1031.07	159.31723
1031.23	112.64747
1031.39	-16.51825
1031.55	131.55229
1031.71	-13.3604
1031.87	99.20574
1032.03	181.92002
1032.19	78.10836
1032.35	103.27148
1032.51	176.13588
1032.67	36.51617
1032.83	70.18582
1032.99	87.98115
1033.15	194.07903
1033.31	162.13006
1033.47	3.83778
1033.63	150.44414
1033.79	116.76539
1033.949	29.94022
1034.109	152.50035
1034.269	87.22183
1034.429	232.03542
1034.588	159.42542
1034.748	60.14364
1034.908	132.52697
1035.067	133.28503
1035.227	116.54867
1035.387	155.42208
1035.546	249.35
1035.706	11.83438
1035.865	197.75271
1036.025	107.87858
1036.184	108.58313
1036.344	131.33569
1036.503	180.02814
1036.662	47.4906
1036.822	153.25787
1036.981	86.02858
1037.14	123.37444
1037.3	42.27559
1037.459	92.53661
1037.618	174.13548
1037.778	190.621
1037.937	131.60644
1038.096	134.25965
1038.255	133.23088
1038.414	56.34293
1038.573	258.67719
1038.733	141.29755
1038.892	185.48721
1039.051	247.08514
1039.21	225.88378
1039.369	45.75238
1039.528	171.26979
1039.687	170.18832
1039.846	171.91865
1040.005	59.65501
1040.164	169.64757
1040.322	62.85811
1040.481	107.98697
1040.64	71.37977
1040.799	37.60295
1040.958	235.00284
1041.116	118.98664
1041.275	62.0438
1041.434	126.57005
1041.593	21.29663
1041.751	67.52636
1041.91	206.34079
1042.069	-24.08774
1042.227	85.16072
1042.386	241.20644
1042.544	51.18395
1042.703	92.37393
1042.861	108.9083
1043.02	48.08809
1043.178	221.51207
1043.337	266.06131
1043.495	160.94005
1043.653	64.86665
1043.812	1.38935
1043.97	63.02097
1044.129	52.32444
1044.287	119.25751
1044.445	150.39003
1044.603	-23.70649
1044.762	-43.53885
1044.92	252.80088
1045.078	127.27411
1045.236	92.15702
1045.394	131.66059
1045.552	247.08514
