Data from deut_64ms_62_SR4014911__0__16-25-06-177.txt Node

Date: Sun Jul 13 16:25:06 EDT 2025
User: cryst
Spectrometer: SR401491
Trigger mode: 0
Integration Time (sec): 6.400000E-2
Scans to average: 62
Electric dark correction enabled: true
Nonlinearity correction enabled: true
Boxcar width: 0
XAxis mode: Wavelengths
Number of Pixels in Spectrum: 3648
>>>>>Begin Spectral Data<<<<<
344.912	-102.12354
345.129	-109.89616
345.347	-111.42981
345.565	-89.20966
345.783	37.5617
346.001	38.4381
346.219	6.48334
346.437	26.8848
346.654	67.92113
346.872	27.86676
347.09	-5.85638
347.308	60.514
347.526	45.58848
347.743	13.41423
347.961	92.57941
348.179	39.99803
348.397	51.19528
348.614	85.424
348.832	99.64551
349.05	102.60083
349.268	104.55921
349.485	111.2726
349.703	84.86408
349.921	129.67351
350.138	122.51033
350.356	130.42467
350.574	70.16213
350.791	99.55807
351.009	119.45231
351.227	113.96448
351.444	94.87085
351.662	109.45455
351.879	96.18265
352.097	101.56913
352.314	94.99329
352.532	99.19082
352.75	106.60487
352.967	125.98733
353.185	115.58997
353.402	96.56744
353.62	86.77125
353.837	128.36332
354.055	92.24705
354.272	135.49004
354.49	166.08964
354.707	156.66724
354.925	84.84658
355.142	116.97069
355.359	138.38912
355.577	142.33556
355.794	146.99722
356.012	155.98661
356.229	107.28672
356.446	118.26395
356.664	124.5197
356.881	153.56063
357.099	95.18569
357.316	120.90273
357.533	123.64608
357.751	118.08919
357.968	190.79961
358.185	136.6078
358.402	118.89309
358.62	153.82244
358.837	151.86756
359.054	101.04452
359.272	95.74539
359.489	114.2791
359.706	127.50728
359.923	146.97977
360.141	124.18773
360.358	124.69443
360.575	137.41115
360.792	129.42895
361.009	104.36688
361.226	134.33732
361.444	175.80534
361.661	138.37166
361.878	113.1954
362.095	116.79592
362.312	123.06948
362.529	147.64316
362.746	138.75585
362.963	88.18841
363.181	88.59081
363.398	132.27626
363.615	171.93342
363.832	99.99527
364.049	94.08374
364.266	175.7007
364.483	142.78954
364.7	116.98816
364.917	80.75184
365.134	126.6687
365.351	111.13275
365.568	137.88268
365.785	100.88713
366.002	105.80061
366.219	111.02787
366.436	144.74506
366.652	161.01241
366.869	128.29344
367.086	139.22735
367.303	105.32854
367.52	113.91204
367.737	161.65802
367.954	142.37048
368.171	106.11533
368.387	178.61302
368.604	126.58134
368.821	135.68216
369.038	105.24112
369.255	121.49685
369.471	99.19082
369.688	152.35629
369.905	152.74029
370.122	136.45062
370.339	123.08695
370.555	101.11447
370.772	103.5101
370.989	193.72778
371.205	109.22729
371.422	123.8907
371.639	88.76576
371.855	162.72237
372.072	123.78586
372.289	102.47843
372.505	177.18305
372.722	96.06022
372.939	132.04918
373.155	146.85756
373.372	114.55876
373.589	123.73345
373.805	116.72601
374.022	101.37677
374.238	86.57879
374.455	133.46401
374.671	146.33381
374.888	143.88954
375.104	87.20865
375.321	71.08998
375.537	120.60566
375.754	133.39414
375.97	134.12772
376.187	170.4159
376.403	114.54128
376.62	122.65012
376.836	115.74727
377.053	112.19905
377.269	114.94328
377.486	101.28934
377.702	85.12654
377.918	81.59183
378.135	107.70632
378.351	135.43765
378.568	132.59067
378.784	127.38499
379	130.4596
379.217	124.55465
379.433	111.74457
379.649	140.43226
379.865	111.98929
380.082	160.00034
380.298	96.74233
380.514	176.86915
380.731	127.00064
380.947	90.97005
381.163	144.29111
381.379	110.67825
381.596	123.90817
381.812	158.06335
382.028	127.87416
382.244	100.62482
382.46	109.68181
382.676	162.49554
382.893	141.39266
383.109	123.78586
383.325	118.96299
383.541	146.5084
383.757	76.56896
383.973	135.07088
384.189	167.46784
384.405	114.80345
384.622	118.57852
384.838	148.60331
385.054	146.7179
385.27	169.03785
385.486	114.78598
385.702	96.6374
385.918	134.51198
386.134	121.02505
386.35	155.51539
386.566	154.20642
386.782	166.01986
386.998	156.07387
387.214	131.15833
387.43	128.90487
387.646	160.07014
387.861	134.18012
388.077	128.55548
388.293	132.416
388.509	145.47834
388.725	148.90007
388.941	134.96608
389.157	120.41344
389.373	140.58942
389.588	143.68002
389.804	145.35613
390.02	174.96821
390.236	96.49747
390.452	121.88128
390.668	118.19405
390.883	171.93342
391.099	143.74986
391.315	146.22906
391.531	120.09889
391.746	129.46389
391.962	134.23252
392.178	132.29373
392.393	138.26687
392.609	186.40677
392.825	130.7391
393.041	129.1145
393.256	160.01779
393.472	150.48859
393.687	158.34256
393.903	171.04385
394.119	149.73799
394.334	158.48217
394.55	188.48125
394.766	145.81006
394.981	174.86357
395.197	169.31695
395.412	202.0052
395.628	185.25615
395.843	191.7757
396.059	253.91478
396.274	178.02011
396.49	218.41346
396.705	170.18914
396.921	111.90189
397.136	162.9143
397.352	166.92703
397.567	134.28492
397.783	130.87884
397.998	146.78773
398.214	144.13397
398.429	114.75102
398.644	197.23074
398.86	136.3109
399.075	166.94448
399.29	136.95708
399.506	132.76534
399.721	132.5208
399.936	130.28492
400.152	122.45791
400.367	143.6451
400.582	153.59554
400.798	165.3569
401.013	122.02107
401.228	153.94461
401.444	160.48893
401.659	144.37841
401.874	190.3987
402.089	161.02986
402.304	173.38109
402.52	142.21333
402.735	130.24998
402.95	124.13531
403.165	170.57289
403.38	204.1308
403.596	133.6736
403.811	166.29899
404.026	208.46862
404.241	133.9356
404.456	121.5318
404.671	180.70551
404.886	159.56409
405.101	130.98365
405.316	142.78954
405.532	171.6369
405.747	164.3101
405.962	168.79363
406.177	161.67547
406.392	131.80464
406.607	190.34641
406.822	167.11893
407.037	190.78217
407.252	232.13196
407.467	212.61418
407.682	226.02213
407.896	247.33993
408.111	235.49094
408.326	245.72208
408.541	311.82349
408.756	327.70088
408.971	352.70556
409.186	351.70023
409.401	310.50433
409.616	191.09592
409.83	150.69806
410.045	135.54244
410.26	123.40146
410.475	118.77076
410.69	141.53235
410.905	152.61811
411.119	107.86366
411.334	131.15833
411.549	132.92254
411.764	176.11925
411.978	161.2567
412.193	149.63325
412.408	122.02107
412.623	101.65656
412.837	184.50648
413.052	157.95864
413.267	164.20542
413.481	136.45062
413.696	137.74297
413.911	134.56437
414.125	120.43091
414.34	130.65176
414.554	123.6985
414.769	172.38691
414.984	122.09096
415.198	106.76222
415.413	116.39394
415.627	143.74986
415.842	132.24132
416.056	159.58154
416.271	127.41993
416.485	147.03214
416.7	148.09705
416.914	143.8197
417.129	132.01425
417.343	160.76812
417.558	140.17033
417.772	159.63389
417.987	154.11915
418.201	129.58617
418.415	98.24643
418.63	144.22127
418.844	132.18892
419.059	163.55986
419.273	148.56839
419.487	184.9772
419.702	145.86243
419.916	218.25674
420.13	140.53703
420.345	133.09721
420.559	141.20058
420.773	141.3752
420.988	157.27805
421.202	188.34179
421.416	132.15399
421.63	154.18896
421.845	161.09965
422.059	146.87502
422.273	122.45791
422.487	151.23918
422.701	175.64838
422.916	198.93849
423.13	149.28412
423.344	141.63712
423.558	120.81535
423.772	121.04252
423.986	134.49451
424.201	146.82264
424.415	190.10238
424.629	167.81674
424.843	140.83388
425.057	175.66582
425.271	100.90462
425.485	112.74093
425.699	120.65808
425.913	179.51978
426.127	151.64065
426.341	135.17567
426.555	142.82446
426.769	165.51392
426.983	190.31155
427.197	177.1133
427.411	154.79983
427.625	193.17006
427.839	126.28434
428.053	140.01317
428.267	113.63238
428.481	180.96706
428.695	128.24103
428.908	109.83915
429.122	172.87529
429.336	144.29111
429.55	139.07018
429.764	179.55466
429.978	214.12942
430.191	235.66497
430.405	304.02914
430.619	285.02927
430.833	388.84012
431.047	500.81492
431.26	665.66313
431.474	817.15519
431.688	897.61336
431.901	952.74605
432.115	1139.15272
432.329	1327.10823
432.543	1445.45741
432.756	1746.22232
432.97	1801.60419
433.184	1211.43679
433.397	529.29672
433.611	216.74171
433.824	196.60337
434.038	171.47992
434.252	150.10456
434.465	127.29764
434.679	149.3714
434.892	162.46065
435.106	108.44059
435.319	136.014
435.533	178.10731
435.747	151.4661
435.96	110.34611
436.174	186.49393
436.387	186.7903
436.601	171.68923
436.814	195.03491
437.027	134.72156
437.241	167.2236
437.454	112.32141
437.668	180.42652
437.881	195.85401
438.095	134.51198
438.308	155.79463
438.521	207.9286
438.735	165.68838
438.948	157.43511
439.161	151.36137
439.375	155.09653
439.588	178.89202
439.801	154.1366
440.015	158.98824
440.228	179.27566
440.441	194.19835
440.654	234.08126
440.868	205.6465
441.081	124.81673
441.294	191.27023
441.507	167.52017
441.721	138.23195
441.934	181.69939
442.147	147.69553
442.36	163.08878
442.573	168.37497
442.786	144.83235
443	192.10687
443.213	142.0038
443.426	160.75067
443.639	192.76919
443.852	166.42111
444.065	195.80172
444.278	176.15413
444.491	185.48279
444.704	168.63663
444.917	178.40376
445.13	170.11936
445.343	161.20435
445.556	230.51324
445.769	237.14418
445.982	178.40376
446.195	206.97049
446.408	160.99496
446.621	214.59965
446.834	170.04959
447.047	166.57812
447.26	158.1506
447.473	168.13074
447.686	178.26425
447.899	167.36317
448.111	188.01058
448.324	179.10128
448.537	178.38632
448.75	160.83792
448.963	177.21793
449.176	215.05246
449.388	206.98791
449.601	173.72992
449.814	158.1157
450.027	151.67556
450.239	192.61232
450.452	168.68897
450.665	153.83989
450.878	165.82795
451.09	188.16747
451.303	181.19374
451.516	165.42669
451.728	195.976
451.941	127.45487
452.154	201.29083
452.366	195.48803
452.579	147.71299
452.792	197.91036
453.004	173.53806
453.217	158.011
453.429	172.45668
453.642	165.75817
453.854	199.26957
454.067	236.63952
454.28	246.43533
454.492	129.88314
454.705	143.7324
454.917	160.19229
455.13	217.19449
455.342	201.63931
455.555	130.66922
455.767	231.07023
455.979	167.34572
456.192	207.00533
456.404	145.05932
456.617	163.00154
456.829	158.58687
457.041	210.24536
457.254	188.1849
457.466	155.9517
457.679	157.27805
457.891	230.35659
458.103	178.50839
458.315	180.02547
458.528	142.03872
458.74	159.94799
458.952	171.759
459.165	161.62312
459.377	154.03188
459.589	129.18438
459.801	178.96178
460.014	183.87883
460.226	168.67152
460.438	183.5127
460.65	141.41012
460.862	189.57944
461.075	154.62529
461.287	155.75973
461.499	103.71992
461.711	129.39401
461.923	141.41012
462.135	184.78543
462.347	149.54597
462.559	170.36357
462.771	168.06096
462.983	148.83025
463.196	177.63646
463.408	186.3719
463.62	156.52762
463.832	212.52709
464.044	183.19886
464.256	198.03235
464.468	148.8477
464.68	191.75827
464.891	176.99122
465.103	167.72951
465.315	184.12292
465.527	142.26572
465.739	124.3974
465.951	143.45303
466.163	153.421
466.375	141.34027
466.587	187.52247
466.799	142.19587
467.01	137.16665
467.222	157.3304
467.434	131.10593
467.646	132.80027
467.858	162.63513
468.069	163.69944
468.281	123.96059
468.493	111.08031
468.705	124.32751
468.916	142.96415
469.128	104.15706
469.34	146.2989
469.551	127.40246
469.763	99.2083
469.975	131.14086
470.186	150.50605
470.398	131.82211
470.61	133.16707
470.821	96.86476
471.033	118.12414
471.245	187.17382
471.456	111.22015
471.668	146.75281
471.879	136.03146
472.091	168.65408
472.302	183.23373
472.514	157.66197
472.725	144.71014
472.937	119.05037
473.148	123.33157
473.36	144.37841
473.571	164.65904
473.783	124.93903
473.994	148.90007
474.206	125.44571
474.417	124.85167
474.629	145.94973
474.84	172.4218
475.051	180.1824
475.263	129.04463
475.474	135.24553
475.685	155.11398
475.897	136.73005
476.108	189.16109
476.319	120.60566
476.531	142.05618
476.742	174.79381
476.953	173.60783
477.165	222.47051
477.376	146.33381
477.587	136.59033
477.798	163.76923
478.01	127.10547
478.221	167.10149
478.432	151.32646
478.643	150.17439
478.854	125.74273
479.065	229.72996
479.277	176.64244
479.488	187.55734
479.699	183.32091
479.91	177.40976
480.121	206.7266
480.332	186.0581
480.543	177.07842
480.754	129.13197
480.965	148.02722
481.176	184.26239
481.387	215.45301
481.598	177.00866
481.809	211.51688
482.02	310.00095
482.231	631.13577
482.442	1427.66661
482.653	2909.08943
482.864	4713.59838
483.075	7178.94588
483.286	10165.49744
483.497	13631.2338
483.708	16257.86948
483.919	18592.66393
484.13	20667.13543
484.341	23595.53177
484.551	27599.31366
484.762	31330.545
484.973	32360.76892
485.184	22106.32126
485.395	7247.61919
485.605	2104.94278
485.816	894.05077
486.027	454.67494
486.238	339.06139
486.449	361.09352
486.659	270.90155
486.87	244.10413
487.081	249.53172
487.291	226.14399
487.502	205.85556
487.713	187.01692
487.923	228.23296
488.134	171.44503
488.345	239.24974
488.555	215.50526
488.766	166.40367
488.976	219.78909
489.187	200.57643
489.398	195.6623
489.608	221.39101
489.819	180.13009
490.029	164.22286
490.24	223.82853
490.45	228.30259
490.661	194.77349
490.871	193.58835
491.082	154.57294
491.292	166.33388
491.503	201.16886
491.713	211.67364
491.924	183.44296
492.134	175.07285
492.344	181.7517
492.555	192.07201
492.765	208.52087
492.975	208.32926
493.186	226.66624
493.396	212.68384
493.607	142.94668
493.817	227.31035
494.027	191.84542
494.237	176.85171
494.448	178.4212
494.658	207.04017
494.868	159.05804
495.078	197.77095
495.289	237.45741
495.499	175.12517
495.709	162.60023
495.919	180.79269
496.129	182.27478
496.34	147.46858
496.55	137.83028
496.76	210.68082
496.97	197.61412
497.18	184.68082
497.39	155.75973
497.6	198.88621
497.81	221.46065
498.021	212.26583
498.231	205.36776
498.441	201.30825
498.651	170.7822
498.861	146.59569
499.071	186.4765
499.281	215.76649
499.491	182.48401
499.701	197.10875
499.911	190.8519
500.121	191.53168
500.331	196.21998
500.54	240.24157
500.75	179.13615
500.96	183.2163
501.17	177.09586
501.38	200.82038
501.59	204.49667
501.8	189.40513
502.01	130.96618
502.219	189.9455
502.429	213.74626
502.639	236.08264
502.849	199.68777
503.059	165.39179
503.268	172.47412
503.478	171.58457
503.688	198.6074
503.898	174.16594
504.107	177.39232
504.317	226.94478
504.527	192.03715
504.736	192.22887
504.946	175.19494
505.156	205.69876
505.365	168.02607
505.575	164.53691
505.785	197.91036
505.994	203.22483
506.204	169.42162
506.413	185.7443
506.623	146.52586
506.832	189.8932
507.042	194.86063
507.251	224.68162
507.461	194.80834
507.67	200.19309
507.88	165.14754
508.089	180.3219
508.299	179.74647
508.508	186.7903
508.718	144.51809
508.927	151.95484
509.137	208.66023
509.346	202.19686
509.555	152.28648
509.765	159.24999
509.974	320.6916
510.184	199.00819
510.393	167.62484
510.602	166.85725
510.812	213.79851
511.021	188.70786
511.23	214.40807
511.439	164.20542
511.649	163.69944
511.858	187.92342
512.067	188.65557
512.276	196.96934
512.486	347.05448
512.695	188.673
512.904	135.52498
513.113	181.61221
513.322	185.56996
513.531	198.85136
513.741	210.31503
513.95	142.54509
514.159	185.39562
514.368	151.74538
514.577	177.61902
514.786	160.36678
514.995	157.20824
515.204	180.77526
515.413	149.21429
515.622	161.46608
515.831	169.21229
516.04	169.92748
516.249	131.36795
516.458	167.85163
516.667	190.67759
516.876	213.31085
517.085	169.96237
517.294	195.31375
517.503	156.7894
517.712	170.38101
517.921	185.77916
518.13	181.87375
518.339	188.55098
518.547	243.14724
518.756	154.1366
518.965	173.22412
519.174	176.10181
519.383	188.79502
519.591	147.01468
519.8	145.96719
520.009	178.31657
520.218	159.52919
520.426	160.07014
520.635	197.19588
520.844	181.12399
521.053	198.08462
521.261	207.45826
521.47	199.00819
521.679	171.44503
521.887	194.68635
522.096	167.93885
522.304	138.21448
522.513	150.69806
522.722	147.52096
522.93	205.05417
523.139	176.65988
523.347	159.91309
523.556	147.57333
523.764	166.28155
523.973	160.89026
524.182	144.79744
524.39	188.02801
524.598	148.60331
524.807	148.72551
525.015	154.41586
525.224	192.14172
525.432	175.82278
525.641	142.24826
525.849	175.57862
526.057	171.28805
526.266	199.8446
526.474	146.43856
526.683	140.86881
526.891	193.65807
527.099	150.22676
527.308	173.15435
527.516	130.98365
527.724	187.71423
527.932	145.75768
528.141	200.14082
528.349	228.73777
528.557	170.93919
528.765	143.08637
528.974	129.48136
529.182	139.89093
529.39	175.28214
529.598	143.05145
529.806	131.00112
530.015	176.48548
530.223	150.94244
530.431	143.83716
530.639	132.43346
530.847	150.90753
531.055	166.22921
531.263	160.64597
531.471	123.85575
531.679	118.84066
531.887	163.40284
532.095	175.10773
532.303	202.0052
532.511	144.15143
532.719	152.07702
532.927	153.31628
533.135	179.60697
533.343	218.13484
533.551	157.95864
533.759	159.84329
533.967	195.61002
534.175	174.04386
534.383	221.11242
534.591	195.87143
534.798	193.62321
535.006	142.59747
535.214	154.3984
535.422	127.28017
535.63	201.709
535.837	133.63867
536.045	127.57717
536.253	161.1869
536.461	180.81013
536.668	160.12249
536.876	191.67112
537.084	195.08719
537.292	195.4706
537.499	205.61166
537.707	191.91514
537.915	191.18307
538.122	192.26373
538.33	197.71868
538.538	173.72992
538.745	203.01575
538.953	201.46507
539.16	177.09586
539.368	149.33649
539.575	146.5084
539.783	181.01937
539.99	228.02407
540.198	185.08181
540.406	180.74038
540.613	169.91004
540.82	164.46712
541.028	168.06096
541.235	180.33934
541.443	216.04513
541.65	228.32
541.858	189.26568
542.065	164.20542
542.272	166.70024
542.48	240.01536
542.687	162.75727
542.895	201.88324
543.102	161.58822
543.309	193.95435
543.516	196.67308
543.724	191.09592
543.931	162.73982
544.138	224.24637
544.346	166.0373
544.553	171.18339
544.76	191.44453
544.967	154.1366
545.174	197.35272
545.382	175.75302
545.589	183.28604
545.796	207.5802
546.003	149.59834
546.21	183.80909
546.417	235.75198
546.624	200.61128
546.832	185.62226
547.039	167.6074
547.246	210.17568
547.453	183.84396
547.66	158.55197
547.867	192.64718
548.074	181.08912
548.281	162.67003
548.488	180.1824
548.695	172.16017
548.902	180.30446
549.109	166.05475
549.316	147.78282
549.523	150.55842
549.73	155.82954
549.936	171.02641
550.143	148.28908
550.35	141.95142
550.557	163.22836
550.764	145.86243
550.971	187.53991
551.178	144.01175
551.384	193.06548
551.591	198.41572
551.798	202.85895
552.005	153.63045
552.211	196.32454
552.418	162.68747
552.625	142.68478
552.832	185.88376
553.038	198.22403
553.245	185.63969
553.452	200.87265
553.658	140.55449
553.865	159.91309
554.072	176.90403
554.278	179.08384
554.485	240.71137
554.691	219.82391
554.898	177.89804
555.105	200.75068
555.311	175.42166
555.518	208.69507
555.724	198.32859
555.931	143.06891
556.137	150.22676
556.344	186.98206
556.55	165.37435
556.757	184.83773
556.963	171.65434
557.17	184.45417
557.376	189.0042
557.582	232.37563
557.789	171.18339
557.995	158.06335
558.202	172.28226
558.408	192.03715
558.614	140.22271
558.821	196.56852
559.027	196.72536
559.233	193.48378
559.439	229.92143
559.646	193.2572
559.852	217.92588
560.058	209.02604
560.264	193.11777
560.471	195.40089
560.677	207.17954
560.883	214.58223
561.089	211.88265
561.295	173.20668
561.502	190.50328
561.708	181.10655
561.914	202.75441
562.12	207.98086
562.326	218.44828
562.532	224.57716
562.738	206.23882
562.944	168.34008
563.15	198.0672
563.356	161.08221
563.562	185.51766
563.768	201.16886
563.974	152.05956
564.18	207.02275
564.386	183.40809
564.592	175.02053
564.798	174.51476
565.004	230.3914
565.21	128.4856
565.416	210.08859
565.622	200.12339
565.828	206.29108
566.034	223.54997
566.239	190.57301
566.445	216.86362
566.651	234.42934
566.857	247.09639
567.063	231.33132
567.268	257.37554
567.474	266.382
567.68	242.71228
567.886	291.73448
568.091	286.10638
568.297	279.55625
568.503	279.90377
568.708	300.92124
568.914	326.66
569.12	339.82438
569.325	282.84019
569.531	321.40301
569.737	251.09717
569.942	264.81737
570.148	331.39569
570.353	376.19973
570.559	362.86092
570.765	329.34886
570.97	333.91068
571.176	403.29212
571.381	305.95623
571.587	250.61015
571.792	265.51277
571.998	290.79654
572.203	294.07921
572.408	373.98279
572.614	426.40093
572.819	389.34216
573.025	329.12335
573.23	348.16398
573.435	332.38437
573.641	348.82272
573.846	295.39911
574.051	335.33285
574.257	378.13943
574.462	377.22155
574.667	354.0055
574.873	333.2516
575.078	387.07425
575.283	366.70727
575.488	399.51969
575.694	444.20486
575.899	340.74341
576.104	361.38809
576.309	397.99675
576.514	410.64527
576.719	494.62203
576.925	566.68741
577.13	501.66009
577.335	447.69528
577.54	413.7936
577.745	337.70876
577.95	397.20063
578.155	342.16525
578.36	323.5892
578.565	342.65074
578.77	438.76107
578.975	473.94714
579.18	407.49661
579.385	434.02505
579.59	492.25841
579.795	399.00052
580	320.65689
580.205	355.39204
580.41	504.86809
580.615	752.17578
580.82	790.1181
581.024	657.04757
581.229	618.5932
581.434	591.53283
581.639	463.05189
581.844	364.24705
582.049	348.75338
582.253	414.48549
582.458	354.95875
582.663	296.31954
582.868	291.03971
583.072	308.69906
583.277	381.94918
583.482	434.47448
583.686	436.63514
583.891	403.81123
584.096	433.7139
584.3	484.47615
584.505	398.3948
584.71	445.7946
584.914	432.815
585.119	426.19344
585.323	389.49797
585.528	303.5951
585.733	329.34886
585.937	373.42852
586.142	287.47876
586.346	428.66589
586.551	367.40025
586.755	379.97509
586.959	482.75033
587.164	458.7687
587.368	377.11764
587.573	443.1853
587.777	627.54531
587.982	2178.251
588.186	4916.574
588.39	2185.19575
588.595	1358.78954
588.799	2732.98452
589.003	1157.20218
589.208	466.31569
589.412	408.24055
589.616	344.03782
589.82	354.33481
590.025	274.53406
590.229	274.27337
590.433	277.4015
590.637	292.34239
590.842	365.44254
591.046	394.18904
591.25	345.4595
591.454	254.55827
591.658	304.1854
591.862	430.79238
592.067	660.06842
592.271	543.37293
592.475	450.18326
592.679	455.0377
592.883	395.66025
593.087	417.7026
593.291	358.39022
593.495	327.70088
593.699	305.76526
593.903	404.2265
594.107	506.38573
594.311	492.29291
594.515	438.60552
594.719	391.80032
594.923	376.11314
595.127	406.38931
595.33	397.70253
595.534	295.43385
595.738	414.48549
595.942	363.27677
596.146	294.47866
596.35	356.24127
596.553	345.94494
596.757	369.87754
596.961	485.02839
597.165	377.58524
597.369	278.40939
597.572	311.07713
597.776	302.37974
597.98	403.49976
598.183	483.0955
598.387	403.63819
598.591	342.87615
598.794	345.94494
598.998	371.09012
599.202	413.37845
599.405	450.01049
599.609	406.04327
599.812	458.26781
600.016	444.11845
600.22	491.58552
600.423	476.13954
600.627	445.22438
600.83	358.6155
601.034	454.72676
601.237	517.98986
601.441	309.16775
601.644	355.56535
601.847	464.51978
602.051	374.13867
602.254	387.31663
602.458	415.19467
602.661	508.83451
602.864	385.84501
603.068	371.26334
603.271	323.81475
603.475	323.9362
603.678	334.76052
603.881	336.66824
604.084	291.49132
604.288	295.12124
604.491	398.34288
604.694	384.85811
604.897	297.4136
605.101	353.72818
605.304	375.33376
605.507	308.10885
605.71	274.48192
605.913	368.05857
606.116	387.55901
606.32	377.41206
606.523	318.03665
606.726	331.20489
606.929	358.66749
607.132	366.46472
607.335	369.61769
607.538	302.62281
607.741	293.33239
607.944	257.60161
608.147	265.44323
608.35	296.37164
608.553	299.72313
608.756	313.36823
608.959	332.54047
609.162	396.50833
609.365	372.44122
609.568	376.97909
609.771	259.82739
609.973	347.60923
610.176	344.92204
610.379	288.4863
610.582	277.47102
610.785	338.83595
610.988	317.42928
611.19	266.22554
611.393	262.31379
611.596	267.14689
611.799	252.5408
612.001	319.12989
612.204	256.90602
612.407	274.67309
612.609	294.23551
612.812	332.31499
613.015	326.98962
613.217	314.9823
613.42	269.68481
613.623	288.81634
613.825	329.50498
614.028	351.70023
614.23	295.67698
614.433	246.07001
614.636	282.05833
614.838	360.92023
615.041	364.19507
615.243	235.97822
615.446	225.76099
615.648	222.99283
615.85	248.01836
616.053	184.85516
616.255	262.67891
616.458	249.09685
616.66	239.00613
616.863	209.25249
617.065	236.98756
617.267	252.36687
617.47	240.10236
617.672	221.02536
617.874	216.41084
618.077	225.51727
618.279	241.07676
618.481	268.31158
618.683	193.23977
618.886	191.68855
619.088	277.67955
619.29	274.3255
619.492	215.48784
619.694	221.89594
619.897	236.86574
620.099	190.32898
620.301	150.31403
620.503	151.01226
620.705	212.92768
620.907	216.35859
621.109	168.18308
621.311	226.40512
621.513	248.88811
621.715	245.11318
621.917	245.77427
622.119	255.61913
622.321	219.1274
622.523	253.77565
622.725	198.15433
622.927	194.1635
623.129	213.90301
623.331	205.29807
623.533	183.05938
623.735	215.05246
623.937	231.24429
624.139	194.26807
624.341	220.17216
624.542	180.3219
624.744	168.98552
624.946	199.51352
625.148	182.9722
625.35	208.88668
625.551	168.72385
625.753	142.35302
625.955	181.9435
626.156	202.84152
626.358	218.77914
626.56	182.03068
626.762	242.3991
626.963	196.04571
627.165	188.82989
627.366	212.92768
627.568	217.5776
627.77	191.2528
627.971	222.36604
628.173	203.46875
628.374	167.85163
628.576	193.88464
628.777	246.57451
628.979	147.99231
629.18	147.03214
629.382	149.68562
629.583	202.3014
629.785	209.23507
629.986	164.65904
630.188	160.83792
630.389	171.41015
630.591	199.47867
630.792	138.23195
630.993	119.80181
631.195	133.34174
631.396	167.50273
631.597	146.97977
631.799	168.81107
632	187.94085
632.201	172.19505
632.402	187.80139
632.604	205.07159
632.805	160.41913
633.006	190.66016
633.207	202.47564
633.409	219.99804
633.61	148.91753
633.811	173.50318
634.012	173.11947
634.213	172.02063
634.414	171.13106
634.615	166.99682
634.816	209.30474
635.017	209.37442
635.219	188.81245
635.42	187.92342
635.621	173.66015
635.822	232.82815
636.023	187.97572
636.224	187.17382
636.425	189.84091
636.626	173.32877
636.826	146.01956
637.027	204.00885
637.228	139.10511
637.429	144.51809
637.63	157.69688
637.831	144.79744
638.032	167.27594
638.233	119.55716
638.433	148.11451
638.634	169.02041
638.835	159.33724
639.036	178.83971
639.237	109.43707
639.437	101.11447
639.638	149.44123
639.839	151.32646
640.039	113.12548
640.24	176.78195
640.441	149.79035
640.641	100.29256
640.842	148.51602
641.043	127.12294
641.243	105.8181
641.444	146.01956
641.645	180.44396
641.845	121.72401
642.046	140.22271
642.246	126.31928
642.447	86.31634
642.647	141.06089
642.848	163.83902
643.048	174.96821
643.249	133.35921
643.449	130.51201
643.65	101.83143
643.85	106.70977
644.05	166.8747
644.251	121.96865
644.451	128.22356
644.651	133.49894
644.852	128.73018
645.052	124.10037
645.252	120.30859
645.453	105.64326
645.653	104.15706
645.853	111.72709
646.054	115.7997
646.254	110.01396
646.454	88.31088
646.654	109.00002
646.854	117.91443
647.055	155.11398
647.255	111.63969
647.455	190.46842
647.655	127.97898
647.855	154.62529
648.055	136.67765
648.255	113.96448
648.455	140.6418
648.655	147.01468
648.856	138.70346
649.056	135.40272
649.256	165.95007
649.456	123.82081
649.656	124.25762
649.856	150.92498
650.055	132.50333
650.255	187.10409
650.455	167.52017
650.655	166.94448
650.855	221.14724
651.055	274.03005
651.255	271.40561
651.455	295.05178
651.655	219.59755
651.854	235.43873
652.054	165.42669
652.254	208.13764
652.454	272.11823
652.654	250.54058
652.853	397.11409
653.053	500.78042
653.253	1018.63651
653.452	2962.53431
653.652	10612.43661
653.852	26900.87062
654.051	53969.58397
654.251	63397.21846
654.451	63397.21846
654.65	63397.21846
654.85	63397.21846
655.049	63397.21846
655.249	63397.21846
655.449	63397.21846
655.648	63397.21846
655.848	63397.21846
656.047	63397.21846
656.247	63397.21846
656.446	63397.21846
656.645	63397.21846
656.845	63397.21846
657.044	63397.21846
657.244	63397.21846
657.443	55673.78899
657.643	13259.58896
657.842	3226.7019
658.041	2524.22881
658.241	2098.10493
658.44	1753.15462
658.639	1531.58742
658.839	1405.3423
659.038	1246.71951
659.237	1136.98488
659.436	1030.28914
659.636	987.51677
659.835	914.65434
660.034	842.89101
660.233	782.78266
660.432	740.14108
660.631	720.99316
660.831	716.93268
661.03	649.23669
661.229	665.93769
661.428	613.67794
661.627	600.2689
661.826	585.20286
662.025	557.23626
662.224	516.09349
662.423	508.93798
662.622	474.55136
662.821	482.64677
663.02	504.86809
663.219	406.71804
663.418	484.45889
663.617	452.56739
663.816	440.86957
664.015	395.1237
664.214	386.26053
664.412	371.88693
664.611	410.24738
664.81	378.83215
665.009	412.85951
665.208	361.47473
665.406	307.22352
665.605	354.23082
665.804	331.62118
666.003	346.56906
666.201	298.6118
666.4	295.78118
666.599	324.02295
666.798	311.02506
666.996	303.24786
667.195	274.04743
667.394	280.44243
667.592	336.56419
667.791	279.97328
667.989	279.78214
668.188	282.80544
668.386	321.61123
668.585	258.21024
668.783	290.41441
668.982	301.73731
669.18	311.14656
669.379	264.43489
669.577	230.58287
669.776	229.43405
669.974	273.75198
670.173	258.71452
670.371	228.16333
670.57	247.53128
670.768	237.49222
670.966	283.1703
671.165	267.92915
671.363	237.56182
671.561	252.66255
671.76	284.16061
671.958	285.48097
672.156	270.1889
672.354	221.89594
672.553	223.53256
672.751	179.88597
672.949	219.30153
673.147	235.97822
673.345	196.3594
673.543	231.80126
673.742	170.11936
673.94	194.51206
674.138	221.2343
674.336	216.20186
674.534	178.96178
674.732	238.60591
674.93	201.29083
675.128	160.73322
675.326	174.41011
675.524	195.03491
675.722	225.9699
675.92	171.54969
676.118	167.48528
676.316	201.60446
676.514	208.48604
676.712	162.46065
676.91	195.03491
677.108	189.14366
677.305	216.2541
677.503	186.98206
677.701	185.76173
677.899	162.25127
678.097	195.74944
678.295	174.47988
678.492	154.73001
678.69	203.60813
678.888	174.30547
679.085	235.19509
679.283	168.77619
679.481	124.58959
679.679	161.83251
679.876	156.51017
680.074	179.0664
680.271	159.11039
680.469	154.20642
680.667	182.46657
680.864	172.94505
681.062	197.42243
681.259	192.38574
681.457	124.06542
681.654	177.58415
681.852	138.4939
682.049	157.47001
682.247	115.53754
682.444	156.09132
682.642	162.84451
682.839	128.11874
683.037	155.5503
683.234	197.0739
683.431	161.01241
683.629	113.17792
683.826	136.92216
684.023	154.34604
684.221	199.35669
684.418	210.87242
684.615	203.45133
684.813	211.42979
685.01	204.35729
685.207	149.03973
685.404	112.63605
685.601	191.65369
685.799	208.39894
685.996	149.47614
686.193	144.69268
686.39	126.56387
686.587	150.68061
686.784	148.90007
686.981	175.71814
687.179	172.05551
687.376	106.20275
687.573	141.47996
687.77	163.85647
687.967	122.72001
688.164	139.69884
688.361	127.38499
688.558	153.6479
688.755	123.99553
688.952	186.54623
689.148	149.52851
689.345	127.24523
689.542	136.38076
689.739	144.01175
689.936	134.73903
690.133	162.26872
690.33	123.5063
690.526	146.21161
690.723	218.7269
690.92	166.85725
691.117	108.45807
691.314	116.44637
691.51	104.5767
691.707	136.67765
691.904	118.36881
692.1	182.01324
692.297	131.35048
692.494	108.45807
692.69	214.23391
692.887	166.00241
693.084	154.59039
693.28	109.3147
693.477	126.19698
693.673	123.8907
693.87	150.34895
694.066	112.39133
694.263	108.19583
694.459	125.02639
694.656	135.24553
694.852	129.27173
695.049	129.86567
695.245	139.1575
695.442	140.10048
695.638	90.14783
695.834	109.52448
696.031	129.48136
696.227	145.18154
696.423	152.37375
696.62	142.02126
696.816	167.11893
697.012	117.28527
697.209	152.11193
697.405	154.22387
697.601	177.95036
697.797	122.98211
697.994	122.17833
698.19	97.03966
698.386	145.61801
698.582	153.59554
698.778	104.03466
698.974	92.40449
699.17	92.40449
699.367	126.56387
699.563	177.20049
699.759	93.92631
699.955	126.68617
700.151	117.00564
700.347	111.49984
700.543	141.98634
700.739	172.36947
700.935	114.01692
701.131	89.08067
701.327	134.00546
701.523	161.74526
701.718	103.80735
701.914	119.69696
702.11	145.86243
702.306	150.82025
702.502	104.48927
702.698	89.71047
702.894	122.3356
703.089	103.66747
703.285	107.16434
703.481	99.97778
703.677	131.59503
703.872	96.51496
704.068	106.32513
704.264	82.06432
704.459	64.82194
704.655	85.87892
704.851	99.05091
705.046	68.69149
705.242	76.49895
705.438	67.30832
705.633	91.16248
705.829	90.21781
706.024	118.57852
706.22	160.73322
706.415	120.32606
706.611	118.40376
706.806	146.17669
707.002	112.63605
707.197	123.61114
707.393	120.79788
707.588	98.26392
707.784	129.37654
707.979	96.93472
708.174	68.63897
708.37	98.92849
708.565	107.16434
708.76	96.47998
708.956	107.04196
709.151	93.33158
709.346	94.31113
709.542	96.91723
709.737	73.47076
709.932	123.75092
710.127	128.55548
710.322	91.02253
710.518	92.03714
710.713	94.71343
710.908	55.59229
711.103	104.5767
711.298	115.1705
711.493	71.75522
711.688	72.64802
711.883	91.54733
712.078	141.89903
712.273	136.79991
712.468	77.82914
712.663	111.72709
712.858	115.45015
713.053	122.66759
713.248	131.80464
713.443	95.62296
713.638	71.73772
713.833	83.13176
714.028	103.37021
714.223	155.49794
714.418	160.83792
714.613	85.26652
714.807	137.76043
715.002	88.2584
715.197	95.69292
715.392	58.09705
715.587	90.8301
715.781	87.96097
715.976	64.24408
716.171	137.90014
716.365	101.55164
716.56	117.61733
716.755	60.14621
716.949	82.34431
717.144	108.30073
717.339	88.92321
717.533	105.95797
717.728	132.8876
717.922	70.14462
718.117	64.20906
718.312	119.55716
718.506	90.72513
718.701	157.62707
718.895	160.73322
719.089	111.41244
719.284	116.30655
719.478	89.3081
719.673	59.46317
719.867	106.93706
720.062	93.99628
720.256	82.5893
720.45	71.03747
720.645	55.89007
720.839	111.55228
721.033	107.67135
721.228	73.76834
721.422	100.2401
721.616	94.20618
721.81	94.71343
722.005	109.90907
722.199	125.84756
722.393	77.60161
722.587	67.57095
722.781	101.77897
722.975	126.72111
723.169	93.27911
723.364	103.91226
723.558	83.27175
723.752	95.5355
723.946	133.49894
724.14	94.43357
724.334	102.81067
724.528	106.48249
724.722	83.44674
724.916	119.64453
725.11	114.38397
725.304	115.43267
725.498	108.03849
725.692	84.82908
725.885	117.61733
726.079	133.95306
726.273	90.62017
726.467	87.26114
726.661	78.73924
726.855	104.19203
727.048	139.5766
727.242	87.05119
727.436	97.51188
727.63	93.47152
727.823	124.10037
728.017	71.00245
728.211	83.56923
728.405	114.5238
728.598	98.40383
728.792	93.524
728.986	114.38397
729.179	97.51188
729.373	80.13932
729.566	102.74072
729.76	96.81229
729.953	100.48492
730.147	130.68669
730.34	90.95255
730.534	174.25315
730.727	133.63867
730.921	122.21328
731.114	133.21947
731.308	104.36688
731.501	99.05091
731.695	87.75102
731.888	102.70575
732.081	78.58172
732.275	101.23688
732.468	120.50081
732.661	102.47843
732.855	77.18155
733.048	81.66183
733.241	67.79857
733.434	112.49621
733.628	116.60367
733.821	141.63712
734.014	119.73191
734.207	130.18011
734.4	95.55299
734.594	95.83284
734.787	120.55323
734.98	95.37809
735.173	111.83197
735.366	46.14921
735.559	123.41894
735.752	72.07033
735.945	62.24776
736.138	56.39804
736.331	110.48596
736.524	126.56387
736.717	88.78325
736.91	96.93472
737.103	108.40562
737.296	83.60422
737.489	117.18041
737.682	45.74618
737.875	80.05182
738.067	95.62296
738.26	118.03676
738.453	115.13554
738.646	95.60547
738.839	100.7997
739.031	104.40185
739.224	100.13517
739.417	124.76431
739.61	121.33958
739.802	82.72929
739.995	48.81253
740.188	131.64743
740.38	90.46273
740.573	93.97879
740.765	75.7113
740.958	39.08662
741.151	106.62235
741.343	55.94262
741.536	61.91503
741.728	62.51044
741.921	92.80682
742.113	69.47934
742.306	73.71583
742.498	75.85133
742.691	73.55829
742.883	70.30218
743.076	58.88521
743.268	62.94824
743.46	103.61501
743.653	60.46146
743.845	92.19457
744.037	82.22182
744.23	54.68142
744.422	89.04568
744.614	86.73625
744.807	80.92684
744.999	92.98174
745.191	88.11843
745.383	80.62933
745.575	57.2388
745.768	93.524
745.96	89.86792
746.152	101.2019
746.344	59.7434
746.536	111.4474
746.728	92.73685
746.92	100.60734
747.112	87.06868
747.304	87.36612
747.496	90.2528
747.688	51.09016
747.88	34.91479
748.072	124.76431
748.264	58.49989
748.456	74.04842
748.648	67.74604
748.84	66.34531
749.032	58.74509
749.224	103.71992
749.416	97.21456
749.608	121.14737
749.799	98.92849
749.991	85.47649
750.183	123.06948
750.375	59.91854
750.567	85.82643
750.758	32.32021
750.95	88.03095
751.142	76.814
751.333	65.29472
751.525	80.75184
751.717	100.48492
751.908	144.60538
752.1	78.79174
752.292	87.54108
752.483	94.55601
752.675	68.77903
752.866	106.30765
753.058	129.30666
753.249	106.04539
753.441	109.38462
753.632	55.60981
753.824	59.72588
754.015	64.97953
754.207	115.03067
754.398	99.48812
754.589	50.16161
754.781	66.06516
754.972	76.13138
755.164	85.82643
755.355	79.00176
755.546	98.92849
755.738	74.22346
755.929	85.72145
756.12	127.82175
756.311	145.87989
756.503	93.71641
756.694	113.89456
756.885	99.92532
757.076	161.58822
757.267	140.36241
757.458	123.13937
757.65	104.75155
757.841	100.2401
758.032	139.10511
758.223	127.83922
758.414	127.47234
758.605	137.25398
758.796	78.3717
758.987	130.31986
759.178	70.44224
759.369	45.74618
759.56	79.84181
759.751	70.3547
759.942	89.16814
760.133	80.20932
760.324	91.94967
760.514	81.03184
760.705	119.97656
760.896	74.85362
761.087	86.36883
761.278	70.3547
761.468	48.42707
761.659	105.55583
761.85	105.17118
762.041	51.05512
762.231	108.33569
762.422	66.10018
762.613	104.01717
762.803	79.08926
762.994	150.03474
763.185	63.07082
763.375	102.49591
763.566	82.6418
763.757	87.96097
763.947	89.78045
764.138	101.77897
764.328	112.84581
764.519	131.08846
764.709	100.57236
764.9	88.57331
765.09	91.3549
765.281	77.40909
765.471	65.34725
765.661	58.46486
765.852	78.49421
766.042	90.69015
766.232	35.63351
766.423	62.33532
766.613	76.35892
766.803	74.7836
766.994	104.62915
767.184	79.54429
767.374	128.50307
767.564	126.79099
767.755	95.3431
767.945	48.79501
768.135	62.31781
768.325	120.18626
768.515	94.45106
768.706	89.71047
768.896	112.88077
769.086	98.00158
769.276	106.55242
769.466	66.59044
769.656	78.12667
769.846	76.88401
770.036	104.1046
770.226	100.43246
770.416	87.4186
770.606	89.71047
770.796	131.31554
770.986	96.46249
771.176	77.86414
771.366	105.32854
771.555	93.55898
771.745	41.8558
771.935	98.98095
772.125	68.32382
772.315	75.37873
772.504	112.19905
772.694	53.47271
772.884	99.43565
773.074	38.42057
773.263	90.09535
773.453	65.13712
773.643	121.09494
773.832	105.18866
774.022	93.7339
774.212	63.57866
774.401	49.02278
774.591	36.58009
774.781	43.08256
774.97	91.0925
775.16	45.92141
775.349	51.05512
775.539	63.61368
775.728	37.33383
775.918	91.38989
776.107	127.80428
776.297	199.33927
776.486	345.82358
776.675	415.95572
776.865	304.25485
777.054	134.54691
777.243	113.68482
777.433	98.7536
777.622	117.73966
777.811	92.73685
778.001	100.85216
778.19	64.87447
778.379	65.29472
778.568	88.10094
778.758	63.35101
778.947	81.87183
779.136	80.69934
779.325	89.65799
779.514	41.34755
779.703	106.16778
779.892	49.26807
780.082	63.75377
780.271	46.07912
780.46	87.71603
780.649	90.09535
780.838	68.58644
781.027	45.57095
781.216	48.60228
781.405	31.18062
781.594	75.79882
781.783	115.76475
781.971	110.46848
782.16	75.58878
782.349	121.4619
782.538	54.03328
782.727	90.84759
782.916	64.31413
783.105	108.26576
783.293	75.86883
783.482	110.15381
783.671	113.31775
783.86	79.33428
784.048	41.48776
784.237	15.39665
784.426	64.55928
784.614	55.18941
784.803	79.91181
784.992	10.16834
785.18	71.73772
785.369	92.28204
785.557	65.73247
785.746	92.77183
785.935	78.94925
786.123	67.23828
786.312	43.88868
786.5	88.01346
786.689	78.84424
786.877	68.90159
787.065	92.26454
787.254	18.41387
787.442	36.63268
787.631	84.23416
787.819	93.03422
788.007	104.92639
788.196	96.93472
788.384	93.2966
788.572	107.88114
788.761	46.34196
788.949	45.92141
789.137	71.84275
789.325	65.45231
789.513	43.71344
789.702	70.94993
789.89	92.64938
790.078	42.25888
790.266	46.93772
790.454	67.39586
790.642	45.9915
790.83	115.78222
791.018	68.34133
791.207	66.10018
791.395	89.43056
791.583	38.7536
791.771	112.32141
791.959	63.66621
792.146	49.44328
792.334	43.80106
792.522	50.66969
792.71	62.86068
792.898	53.20994
793.086	90.60268
793.274	69.98705
793.462	117.84452
793.65	112.60109
793.837	48.6198
794.025	81.22434
794.213	47.77877
794.401	103.61501
794.588	59.07786
794.776	28.56814
794.964	32.44293
795.151	86.36883
795.339	82.5893
795.527	47.11294
795.714	10.16834
795.902	48.42707
796.089	55.60981
796.277	46.35948
796.465	105.04879
796.652	67.93863
796.84	49.02278
797.027	74.18845
797.215	57.0111
797.402	103.03798
797.59	109.47203
797.777	37.89474
797.964	43.48562
798.152	41.7857
798.339	99.08588
798.526	24.62264
798.714	33.70518
798.901	62.14269
799.088	97.58184
799.276	47.27064
799.463	84.23416
799.65	40.20835
799.837	73.03313
800.025	29.14677
800.212	80.75184
800.399	55.45216
800.586	51.51063
800.773	37.5617
800.96	53.71796
801.148	91.89719
801.335	89.32559
801.522	90.77761
801.709	42.85474
801.896	81.62683
802.083	53.05227
802.27	35.09009
802.457	61.79244
802.644	40.41867
802.831	69.47934
803.018	54.57631
803.204	51.80845
803.391	61.7399
803.578	47.93647
803.765	46.69241
803.952	84.79409
804.139	51.44055
804.326	69.19922
804.512	57.95693
804.699	89.37808
804.886	39.01651
805.073	31.86438
805.259	68.39385
805.446	142.56255
805.633	81.73183
805.819	81.08434
806.006	74.57355
806.192	66.06516
806.379	36.86056
806.566	31.96957
806.752	62.40537
806.939	45.23801
807.125	18.39633
807.312	77.30407
807.498	72.42044
807.685	85.31901
807.871	51.19528
808.058	89.76296
808.244	82.29181
808.43	80.87434
808.617	81.45184
808.803	78.45921
808.99	38.59585
809.176	58.53491
809.362	28.16485
809.549	83.16676
809.735	57.62414
809.921	25.74498
810.107	82.29181
810.293	36.98326
810.48	71.42261
810.666	73.85587
810.852	75.41374
811.038	58.88521
811.224	49.56592
811.41	67.16825
811.597	90.04287
811.783	14.39669
811.969	52.5968
812.155	11.01056
812.341	50.14409
812.527	71.42261
812.713	61.0569
812.899	48.79501
813.085	52.92965
813.271	71.03747
813.456	66.78305
813.642	27.81416
813.828	45.20297
814.014	98.29889
814.2	49.61848
814.386	54.61135
814.572	21.76398
814.757	81.83683
814.943	112.44377
815.129	68.39385
815.315	71.05497
815.5	64.38417
815.686	76.51645
815.872	19.04534
816.057	28.3402
816.243	104.66412
816.429	57.90438
816.614	54.34859
816.8	32.67084
816.985	47.0779
817.171	57.97444
817.356	66.11769
817.542	59.56826
817.727	78.70423
817.913	17.20352
818.098	52.73694
818.284	44.8525
818.469	59.13041
818.655	40.08566
818.84	81.17184
819.025	25.60469
819.211	85.21403
819.396	72.64802
819.581	39.43717
819.767	18.15075
819.952	58.35977
820.137	80.36683
820.322	85.3715
820.508	135.92667
820.693	85.65146
820.878	60.07616
821.063	62.96575
821.248	99.31323
821.433	30.86503
821.618	74.27598
821.804	62.77312
821.989	35.37057
822.174	78.96675
822.359	96.53245
822.544	23.86855
822.729	72.21038
822.914	22.69352
823.099	33.88049
823.284	51.73838
823.469	29.19937
823.653	81.08434
823.838	75.85133
824.023	30.9001
824.208	39.01651
824.393	79.43929
824.578	57.20377
824.762	18.50157
824.947	40.40114
825.132	53.92817
825.317	27.55114
825.501	65.69745
825.686	52.38657
825.871	46.90268
826.056	69.07666
826.24	76.70898
826.425	85.65146
826.609	28.05964
826.794	35.40562
826.979	47.62108
827.163	50.02145
827.348	34.61677
827.532	24.09653
827.717	45.01021
827.901	49.51336
828.086	69.19922
828.27	30.49684
828.455	71.65019
828.639	75.02866
828.823	65.71496
829.008	42.13621
829.192	34.6869
829.376	58.09705
829.561	38.92887
829.745	44.65974
829.929	19.2032
830.114	62.14269
830.298	124.85167
830.482	32.84616
830.666	80.36683
830.85	44.18659
831.035	61.12696
831.219	23.0092
831.403	17.13335
831.587	25.11367
831.771	96.74233
831.955	45.95646
832.139	46.97277
832.323	55.60981
832.507	23.92116
832.691	31.93451
832.875	15.32648
833.059	28.35773
833.243	20.50116
833.427	39.01651
833.611	53.68292
833.795	8.361
833.979	67.20327
834.163	33.6
834.346	78.70423
834.53	48.60228
834.714	82.18682
834.898	61.75742
835.082	42.53929
835.265	70.42473
835.449	29.1643
835.633	10.69473
835.816	52.85957
836	14.69493
836.184	72.78806
836.367	85.24902
836.551	66.10018
836.735	75.74631
836.918	15.09842
837.102	37.08843
837.285	51.77341
837.469	38.77113
837.652	81.43434
837.836	34.16098
838.019	32.47799
838.203	55.89007
838.386	41.11972
838.569	-0.04564
838.753	113.47507
838.936	20.25561
839.12	46.58727
839.303	69.74195
839.486	64.36666
839.669	32.61825
839.853	55.97766
840.036	28.98896
840.219	31.4962
840.402	19.25582
840.586	60.72416
840.769	62.77312
840.952	15.94048
841.135	78.68673
841.318	45.01021
841.501	26.06062
841.684	4.99165
841.868	69.88201
842.051	58.35977
842.234	61.07442
842.417	28.23499
842.6	52.5968
842.783	66.73052
842.966	56.15282
843.149	136.79991
843.331	45.67609
843.514	162.26872
843.697	163.69944
843.88	200.19309
844.063	127.5597
844.246	80.50683
844.429	58.99029
844.611	59.23549
844.794	75.67629
844.977	77.32157
845.16	79.47429
845.342	67.676
845.525	48.58476
845.708	14.78264
845.89	37.84215
846.073	26.3412
846.256	47.91895
846.438	44.83497
846.621	85.77394
846.803	59.41063
846.986	9.65949
847.168	50.23169
847.351	89.37808
847.533	57.53656
847.716	80.50683
847.898	86.10638
848.081	-4.34652
848.263	58.60497
848.446	30.39164
848.628	81.69683
848.81	31.33841
848.993	30.33904
849.175	24.71033
849.357	57.95693
849.539	36.8255
849.722	14.65984
849.904	35.37057
850.086	63.29848
850.268	104.36688
850.451	112.00677
850.633	72.84058
850.815	37.75451
850.997	89.53553
851.179	44.25669
851.361	47.06038
851.543	39.10415
851.725	51.77341
851.907	33.10913
852.089	69.70694
852.271	37.98238
852.453	95.85033
852.635	72.71804
852.817	49.23303
852.999	42.83721
853.181	38.17518
853.363	46.04407
853.545	47.14799
853.727	40.36609
853.908	43.71344
854.09	59.95356
854.272	95.60547
854.454	54.92666
854.636	56.10027
854.817	25.28903
854.999	68.35884
855.181	46.67489
855.362	58.41231
855.544	42.67949
855.726	72.99812
855.907	47.8839
856.089	28.65581
856.27	52.66687
856.452	52.10627
856.634	76.814
856.815	46.00903
856.997	76.18389
857.178	17.01056
857.36	14.30897
857.541	8.76459
857.722	44.01135
857.904	46.6048
858.085	54.47121
858.267	60.74167
858.448	44.7824
858.629	47.69117
858.811	22.62336
858.992	59.04283
859.173	53.59533
859.354	44.50202
859.536	87.33112
859.717	9.25591
859.898	48.25185
860.079	30.04098
860.26	56.11779
860.441	68.9366
860.623	48.39202
860.804	20.78179
860.985	56.41556
861.166	36.03669
861.347	14.39669
861.528	-0.22117
861.709	75.06366
861.89	41.13724
862.071	77.40909
862.252	34.44147
862.433	28.05964
862.614	123.8907
862.794	26.02555
862.975	58.07953
863.156	110.52092
863.337	16.87022
863.518	76.46394
863.699	46.95524
863.879	78.28419
864.06	38.57832
864.241	58.71006
864.422	41.55786
864.602	27.30565
864.783	62.00259
864.964	21.92183
865.144	44.58964
865.325	46.16673
865.506	53.40264
865.686	49.14543
865.867	54.82155
866.047	45.34315
866.228	49.14543
866.408	37.33383
866.589	46.41205
866.769	72.35042
866.95	40.73414
867.13	44.90507
867.31	44.74736
867.491	52.05372
867.671	16.11591
867.852	30.05851
868.032	73.29571
868.212	51.68582
868.393	79.54429
868.573	30.70724
868.753	42.32898
868.933	40.40114
869.113	42.22383
869.294	50.98504
869.474	66.64297
869.654	35.33551
869.834	43.02998
870.014	48.21681
870.194	4.4827
870.374	58.90272
870.555	24.18422
870.735	37.49159
870.915	49.39072
871.095	42.69701
871.275	54.36611
871.455	77.02403
871.634	28.19992
871.814	63.70124
871.994	45.86884
872.174	52.29898
872.354	87.71603
872.534	41.47023
872.714	44.36183
872.894	33.61753
873.073	45.25554
873.253	77.05904
873.433	20.85195
873.613	15.30894
873.792	44.4845
873.972	42.10116
874.152	20.83441
874.331	64.71687
874.511	87.34862
874.691	36.80797
874.87	27.42839
875.05	35.61598
875.229	38.1226
875.409	49.86377
875.588	23.69317
875.768	60.72416
875.947	91.72226
876.127	77.42659
876.306	48.65484
876.486	47.28816
876.665	46.83259
876.844	47.00781
877.024	92.26454
877.203	51.6683
877.382	39.45469
877.562	27.30565
877.741	29.86565
877.92	61.14447
878.1	55.17189
878.279	35.00244
878.458	24.58757
878.637	45.88637
878.816	66.94063
878.996	47.28816
879.175	45.88637
879.354	41.55786
879.533	68.23628
879.712	39.05157
879.891	49.88129
880.07	66.67799
880.249	57.78177
880.428	43.43305
880.607	57.83432
880.786	19.79957
880.965	79.7193
881.144	61.82747
881.323	1.90269
881.502	45.1504
881.68	29.55004
881.859	23.6581
882.038	61.37214
882.217	50.56457
882.396	5.13204
882.574	43.38048
882.753	37.33383
882.932	53.35008
883.111	53.71796
883.289	45.46582
883.468	36.08928
883.647	47.93647
883.825	51.91357
884.004	66.45037
884.182	38.63091
884.361	32.46046
884.539	28.12978
884.718	72.14035
884.896	27.63881
885.075	34.77455
885.253	66.04765
885.432	52.92965
885.61	5.21979
885.789	41.11972
885.967	15.11597
886.145	74.94114
886.324	34.52912
886.502	39.50727
886.68	54.97921
886.859	41.38261
887.037	68.709
887.215	54.43618
887.393	98.17647
887.572	25.58715
887.75	66.31029
887.928	61.70488
888.106	37.21113
888.284	84.11167
888.462	49.79369
888.64	42.76711
888.819	47.95399
888.997	61.61731
889.175	40.36609
889.353	39.77018
889.531	49.18047
889.709	52.33402
889.887	35.28292
890.065	77.86414
890.242	68.79654
890.42	86.56129
890.598	25.44686
890.776	66.80056
890.954	24.32451
891.132	37.1936
891.309	33.42469
891.487	57.65917
891.665	40.45372
891.843	40.38361
892.02	16.64217
892.198	62.09015
892.376	49.28559
892.553	72.33292
892.731	85.30151
892.909	55.31203
893.086	62.51044
893.264	39.94545
893.441	41.8558
893.619	23.35996
893.797	41.41766
893.974	60.7767
894.151	60.11119
894.329	28.42787
894.506	18.39633
894.684	50.84489
894.861	50.70473
895.039	36.29963
895.216	33.23185
895.393	55.59229
895.571	15.60717
895.748	27.74402
895.925	92.28204
896.102	71.66769
896.28	36.12434
896.457	26.3412
896.634	14.37914
896.811	11.2562
896.988	16.99301
897.166	46.78002
897.343	41.17229
897.52	73.71583
897.697	15.537
897.874	95.43056
898.051	63.82382
898.228	39.34953
898.405	13.3616
898.582	6.67638
898.759	17.72976
898.936	72.2804
899.113	74.3635
899.29	63.6487
899.467	75.48375
899.643	74.17095
899.82	47.00781
899.997	73.43575
900.174	-8.7359
900.351	70.07459
900.527	50.52953
900.704	56.41556
900.881	91.02253
901.058	24.32451
901.234	46.00903
901.411	64.89198
901.588	37.01831
901.764	66.20523
901.941	54.75149
902.117	52.10627
902.294	34.35382
902.471	86.77125
902.647	5.76383
902.824	45.92141
903	62.51044
903.176	38.08754
903.353	57.0111
903.529	17.81747
903.706	49.79369
903.882	33.81037
904.058	3.25415
904.235	2.37659
904.411	18.71206
904.587	40.5063
904.764	42.64444
904.94	25.62222
905.116	39.24437
905.292	53.98072
905.469	37.59676
905.645	48.68988
905.821	84.7241
905.997	27.28811
906.173	19.06288
906.349	35.44068
906.525	33.0916
906.702	45.06278
906.878	22.51814
907.054	45.55343
907.23	51.3004
907.406	35.77375
907.582	87.54108
907.757	43.87116
907.933	28.48047
908.109	64.01644
908.285	53.05227
908.461	57.62414
908.637	4.35984
908.813	23.46518
908.988	40.2434
909.164	44.22164
909.34	43.24028
909.516	33.86296
909.691	24.53496
909.867	56.95855
910.043	53.08731
910.219	72.96311
910.394	57.2388
910.57	64.33164
910.745	78.63423
910.921	81.50434
911.097	9.23837
911.272	14.43178
911.448	68.39385
911.623	21.71136
911.799	10.1157
911.974	3.62272
912.149	33.77531
912.325	41.2424
912.5	29.63771
912.676	32.61825
912.851	14.81773
913.026	49.33816
913.202	21.97444
913.377	47.81382
913.552	20.25561
913.727	95.32561
913.903	36.24704
914.078	34.17851
914.253	51.24784
914.428	33.52987
914.603	-8.54275
914.779	18.34371
914.954	28.498
915.129	76.39393
915.304	47.42834
915.479	60.16373
915.654	37.42147
915.829	68.34133
916.004	19.06288
916.179	67.99116
916.354	21.06242
916.529	70.42473
916.704	37.08843
916.879	48.86509
917.053	67.72853
917.228	28.16485
917.403	41.89085
917.578	80.85684
917.753	36.86056
917.927	15.94048
918.102	38.92887
918.277	43.60829
918.452	48.32194
918.626	32.84616
918.801	75.97385
918.976	49.12791
919.15	36.36974
919.325	64.47172
919.499	45.86884
919.674	71.52764
919.849	48.05912
920.023	66.1352
920.198	43.59077
920.372	48.88262
920.547	55.74994
920.721	25.14874
920.895	50.84489
921.07	34.21357
921.244	64.99704
921.419	72.2804
921.593	29.56758
921.767	48.81253
921.942	48.77749
922.116	6.02707
922.29	43.15266
922.464	38.21024
922.639	10.74737
922.813	31.61893
922.987	64.64683
923.161	20.32576
923.335	46.79754
923.509	57.30886
923.683	52.89461
923.858	54.73397
924.032	76.02636
924.206	60.40892
924.38	-4.36408
924.554	41.38261
924.728	32.61825
924.902	95.25565
925.075	55.50471
925.249	52.9822
925.423	62.96575
925.597	48.97022
925.771	32.77603
925.945	40.34856
926.119	95.1682
926.292	48.02408
926.466	45.95646
926.64	49.53088
926.814	56.2404
926.987	-1.57281
927.161	17.0281
927.335	12.537
927.508	64.1215
927.682	-0.16851
927.856	34.77455
928.029	75.97385
928.203	63.10585
928.376	69.47934
928.55	26.46395
928.723	19.92235
928.897	46.16673
929.07	33.3195
929.244	61.14447
929.417	-10.29869
929.59	49.4608
929.764	18.44895
929.937	54.87411
930.111	87.03369
930.284	12.58963
930.457	3.74558
930.63	18.48403
930.804	49.60096
930.977	47.27064
931.15	49.28559
931.323	75.7113
931.497	31.40854
931.67	37.28124
931.843	70.37221
932.016	5.13204
932.189	42.53929
932.362	42.08363
932.535	83.55173
932.708	33.67012
932.881	38.03496
933.054	56.80091
933.227	68.53392
933.4	13.57213
933.573	30.95269
933.746	28.498
933.919	67.51843
934.092	21.04488
934.264	38.35046
934.437	23.44765
934.61	19.51893
934.783	22.92151
934.956	15.62471
935.128	39.41964
935.301	76.69148
935.474	22.62336
935.646	8.92252
935.819	40.40114
935.992	58.44734
936.164	9.8876
936.337	30.60204
936.51	21.0975
936.682	37.1936
936.855	13.92301
937.027	81.24184
937.2	52.87709
937.372	20.46608
937.545	46.85011
937.717	37.78957
937.889	38.91135
938.062	59.97108
938.234	57.62414
938.406	29.60264
938.579	52.92965
938.751	72.85808
938.923	46.44709
939.096	77.5141
939.268	47.70869
939.44	54.85659
939.612	45.53591
939.784	64.89198
939.957	37.26372
940.129	43.31038
940.301	45.95646
940.473	62.86068
940.645	58.14959
940.817	66.55542
940.989	40.22587
941.161	38.15766
941.333	69.28676
941.505	24.09653
941.677	38.99898
941.849	18.76469
942.021	53.6654
942.193	13.51949
942.365	2.55211
942.537	61.5998
942.708	75.01115
942.88	48.09416
943.052	10.62454
943.224	21.95691
943.395	32.17995
943.567	40.73414
943.739	41.25992
943.911	19.1155
944.082	24.23683
944.254	82.08182
944.425	-1.25684
944.597	37.26372
944.769	57.78177
944.94	34.23111
945.112	76.53395
945.283	84.42664
945.455	37.24619
945.626	48.53219
945.798	41.38261
945.969	46.7625
946.14	54.31356
946.312	61.26706
946.483	33.72271
946.655	39.34953
946.826	34.12592
946.997	63.98142
947.168	-8.12134
947.34	17.64206
947.511	56.39804
947.682	31.26828
947.853	19.25582
948.025	77.07654
948.196	9.44893
948.367	35.10762
948.538	24.90323
948.709	52.47417
948.88	33.16172
949.051	50.87993
949.222	17.32631
949.393	55.13686
949.564	31.79425
949.735	35.17774
949.906	28.12978
950.077	23.55287
950.248	66.78305
950.419	34.21357
950.59	12.36155
950.761	16.90531
950.931	60.02362
951.102	62.7381
951.273	36.29963
951.444	42.43414
951.614	49.96889
951.785	41.38261
951.956	23.58795
952.126	62.3003
952.297	104.20951
952.468	13.01071
952.638	8.18552
952.809	38.64843
952.98	19.93989
953.15	42.52176
953.321	15.39665
953.491	17.60697
953.662	35.28292
953.832	37.15854
954.002	17.64206
954.173	0.91977
954.343	37.78957
954.514	6.2903
954.684	6.79922
954.854	44.60717
955.025	37.57923
955.195	43.50315
955.365	44.65974
955.535	25.06106
955.706	65.52235
955.876	64.40168
956.046	69.32177
956.216	55.48719
956.386	55.01424
956.557	48.16425
956.727	6.95715
956.897	44.30926
957.067	24.07899
957.237	26.37627
957.407	49.51336
957.577	47.67364
957.747	22.43044
957.917	41.13724
958.087	12.41419
958.257	58.28971
958.427	33.33703
958.596	15.71243
958.766	68.2888
958.936	-11.01866
959.106	65.31223
959.276	32.17995
959.445	0.14745
959.615	46.88515
959.785	42.18878
959.955	80.71684
960.124	40.5764
960.294	47.20055
960.464	28.37526
960.633	16.43167
960.803	39.36706
960.972	32.28514
961.142	8.09778
961.311	30.6897
961.481	24.79801
961.65	51.82597
961.82	34.79208
961.989	90.8126
962.159	46.04407
962.328	88.81824
962.498	65.17214
962.667	2.92068
962.836	15.20368
963.006	52.17635
963.175	34.79208
963.344	65.32974
963.513	29.44484
963.683	-4.36408
963.852	20.22053
964.021	36.47492
964.19	3.55252
964.359	31.9871
964.528	38.28035
964.698	8.76459
964.867	11.04565
965.036	45.1504
965.205	94.73092
965.374	60.53151
965.543	33.72271
965.712	39.61244
965.881	30.6897
966.05	28.00704
966.219	26.70945
966.387	46.2193
966.556	44.67726
966.725	23.41257
966.894	50.54705
967.063	19.69433
967.232	30.42671
967.4	2.30638
967.569	19.46631
967.738	73.78585
967.906	16.15099
968.075	72.50797
968.244	15.37911
968.412	31.82931
968.581	44.39688
968.75	36.14186
968.918	38.70102
969.087	17.88764
969.255	46.6048
969.424	61.03939
969.592	53.28001
969.761	36.05422
969.929	33.93308
970.098	56.1353
970.266	-2.41542
970.434	30.61957
970.603	46.16673
970.771	53.19242
970.939	49.53088
971.108	68.32382
971.276	13.83529
971.444	53.12235
971.612	-30.34232
971.781	29.30457
971.949	127.21029
972.117	28.35773
972.285	64.47172
972.453	3.1664
972.621	19.51893
972.789	35.73869
972.957	75.79882
973.125	29.79551
973.293	27.76155
973.461	38.15766
973.629	87.54108
973.797	23.16704
973.965	58.62249
974.133	24.30698
974.301	42.43414
974.469	-4.46941
974.637	33.26691
974.805	73.9609
974.972	42.13621
975.14	69.96955
975.308	31.72412
975.476	36.35222
975.643	63.6487
975.811	29.69031
975.979	91.98466
976.146	40.06813
976.314	66.43286
976.482	46.97277
976.649	0.28787
976.817	40.66404
976.984	58.60497
977.152	21.51844
977.319	76.35892
977.487	81.97682
977.654	36.33469
977.822	12.74754
977.989	20.78179
978.156	41.43518
978.324	51.24784
978.491	30.86503
978.658	8.20307
978.826	47.65612
978.993	29.93578
979.16	39.12168
979.328	25.88527
979.495	45.95646
979.662	-9.66654
979.829	35.47574
979.996	46.27187
980.163	61.00437
980.33	-0.11585
980.498	31.11049
980.665	54.22597
980.832	10.46663
980.999	58.88521
981.166	31.9871
981.333	62.68556
981.5	50.61713
981.667	122.10844
981.833	-11.36987
982	67.57095
982.167	11.81765
982.334	34.73949
982.501	36.00163
982.668	49.00526
982.834	-7.34877
983.001	72.26289
983.168	73.69832
983.335	19.48385
983.501	25.85019
983.668	15.57208
983.835	25.56961
984.001	47.46338
984.168	3.55252
984.334	53.73548
984.501	33.05653
984.668	8.18552
984.834	6.06216
985.001	-3.2054
985.167	75.41374
985.334	0.25276
985.5	12.97562
985.666	1.86759
985.833	11.78256
985.999	28.65581
986.165	44.22164
986.332	59.11289
986.498	38.64843
986.664	33.00394
986.831	30.9001
986.997	32.10983
987.163	9.50157
987.329	28.27006
987.495	11.37902
987.662	58.62249
987.828	15.76505
987.994	59.27052
988.16	62.03761
988.326	20.79933
988.492	31.91697
988.658	55.36458
988.824	43.57325
988.99	19.62417
989.156	23.34242
989.322	88.48584
989.488	44.72983
989.654	23.50026
989.82	35.58092
989.985	77.05904
990.151	50.40689
990.317	87.71603
990.483	2.95579
990.648	50.54705
990.814	48.02408
990.98	30.44424
991.146	36.52751
991.311	54.24349
991.477	55.67988
991.643	5.23734
991.808	29.3221
991.974	0.14745
992.139	40.8393
992.305	35.56339
992.47	13.6423
992.636	52.84205
992.801	63.22843
992.967	38.64843
993.132	22.78121
993.298	103.23033
993.463	18.51912
993.628	30.07605
993.794	29.88318
993.959	58.37728
994.124	9.37874
994.29	38.82371
994.455	65.53986
994.62	36.01916
994.785	76.56896
994.95	20.90457
995.116	56.0302
995.281	43.13513
995.446	32.68837
995.611	-2.46809
995.776	19.23828
995.941	50.21417
996.106	13.62476
996.271	38.85876
996.436	42.10116
996.601	55.99517
996.766	29.39224
996.931	55.34706
997.096	61.52975
997.261	18.50157
997.425	82.97427
997.59	28.56814
997.755	36.58009
997.92	26.69191
998.085	20.06267
998.249	13.13352
998.414	-8.89393
998.579	-4.11829
998.744	31.09296
998.908	53.78803
999.073	76.53395
999.237	50.40689
999.402	21.43074
999.567	31.47867
999.731	43.74849
999.896	-3.94273
1000.06	63.15838
1000.225	34.14345
1000.389	53.5603
1000.553	51.17776
1000.718	64.96202
1000.882	-12.35329
1001.047	35.73869
1001.211	27.00755
1001.375	84.25166
1001.54	32.67084
1001.704	24.34205
1001.868	77.79414
1002.032	85.61646
1002.197	33.95062
1002.361	29.81304
1002.525	47.30568
1002.689	48.84757
1002.853	20.5187
1003.017	18.62436
1003.181	14.39669
1003.345	37.15854
1003.509	46.30691
1003.673	52.77198
1003.837	63.78879
1004.001	34.10839
1004.165	26.00802
1004.329	60.30384
1004.493	39.36706
1004.657	49.93385
1004.821	17.81747
1004.985	50.03897
1005.149	39.22684
1005.312	47.74373
1005.476	9.44893
1005.64	96.2701
1005.804	29.30457
1005.967	67.48341
1006.131	50.66969
1006.295	52.70191
1006.458	42.27641
1006.622	41.25992
1006.785	32.12736
1006.949	67.60597
1007.113	32.53059
1007.276	33.05653
1007.44	59.28803
1007.603	4.13169
1007.767	47.8839
1007.93	17.60697
1008.093	22.5006
1008.257	40.76919
1008.42	-5.61058
1008.584	50.73977
1008.747	37.52664
1008.91	47.7963
1009.073	10.02797
1009.237	36.56256
1009.4	45.85132
1009.563	-6.34798
1009.726	18.62436
1009.889	101.42923
1010.053	36.42233
1010.216	29.72538
1010.379	58.90272
1010.542	79.40429
1010.705	49.07534
1010.868	57.29135
1011.031	42.29393
1011.194	43.2578
1011.357	45.85132
1011.52	17.74731
1011.683	25.88527
1011.846	40.27845
1012.009	46.67489
1012.171	53.73548
1012.334	37.00079
1012.497	64.87447
1012.66	7.53625
1012.823	32.70591
1012.985	75.32622
1013.148	47.18303
1013.311	34.8622
1013.473	45.55343
1013.636	5.25489
1013.799	56.31046
1013.961	48.19929
1014.124	48.44459
1014.286	52.57928
1014.449	-0.55469
1014.612	69.25174
1014.774	28.04211
1014.936	25.99048
1015.099	-1.46748
1015.261	-6.41821
1015.424	39.78771
1015.586	44.16907
1015.748	33.30197
1015.911	10.36135
1016.073	119.32998
1016.235	45.25554
1016.398	43.27533
1016.56	70.05708
1016.722	15.04579
1016.884	26.70945
1017.047	57.09868
1017.209	43.43305
1017.371	9.15063
1017.533	8.25571
1017.695	76.27141
1017.857	62.96575
1018.019	81.17184
1018.181	52.61431
1018.343	39.82276
1018.505	30.98776
1018.667	-1.02863
1018.829	7.97495
1018.991	54.83907
1019.153	45.32563
1019.315	-13.74068
1019.477	17.4491
1019.638	25.04352
1019.8	-8.06866
1019.962	62.17771
1020.124	27.49853
1020.285	36.7028
1020.447	43.59077
1020.609	28.3928
1020.77	20.3433
1020.932	95.97277
1021.094	22.97413
1021.255	28.63828
1021.417	89.99038
1021.578	26.95494
1021.74	37.38641
1021.901	22.11475
1022.063	21.04488
1022.224	45.8338
1022.386	37.29877
1022.547	41.29498
1022.709	47.6386
1022.87	64.10399
1023.031	25.28903
1023.193	17.71222
1023.354	31.42607
1023.515	61.70488
1023.676	45.36068
1023.838	37.12349
1023.999	40.05061
1024.16	50.28425
1024.321	57.81681
1024.482	44.60717
1024.644	81.11934
1024.805	60.25129
1024.966	24.72786
1025.127	13.11597
1025.288	31.4436
1025.449	84.26915
1025.61	38.1226
1025.771	67.2733
1025.932	68.69149
1026.093	64.10399
1026.253	19.86973
1026.414	-14.39049
1026.575	0.12989
1026.736	5.67608
1026.897	18.76469
1027.058	44.02888
1027.218	31.19815
1027.379	10.34381
1027.54	45.32563
1027.7	26.20091
1027.861	59.77843
1028.022	57.2388
1028.182	25.16628
1028.343	49.19799
1028.504	26.02555
1028.664	33.33703
1028.825	40.71661
1028.985	49.35568
1029.146	15.02825
1029.306	19.86973
1029.466	73.34823
1029.627	52.64935
1029.787	17.72976
1029.948	33.52987
1030.108	37.3163
1030.268	61.72239
1030.429	12.64227
1030.589	38.66596
1030.749	31.89944
1030.909	41.36508
1031.07	65.11961
1031.23	40.41867
1031.39	-8.36716
1031.55	55.71491
1031.71	-10.49185
1031.87	29.72538
1032.03	64.24408
1032.19	36.84303
1032.35	22.06214
1032.51	46.44709
1032.67	17.04564
1032.83	21.39566
1032.99	41.18982
1033.15	69.51436
1033.31	50.07401
1033.47	12.62472
1033.63	35.37057
1033.79	20.16791
1033.949	11.08074
1034.109	54.36611
1034.269	37.01831
1034.429	76.53395
1034.588	45.3782
1034.748	34.21357
1034.908	34.56418
1035.067	44.34431
1035.227	38.59585
1035.387	50.03897
1035.546	77.60161
1035.706	4.35984
1035.865	48.47963
1036.025	38.15766
1036.184	26.23598
1036.344	43.95878
1036.503	59.20046
1036.662	26.90234
1036.822	59.86599
1036.981	35.07256
1037.14	43.62582
1037.3	28.58568
1037.459	43.20523
1037.618	59.4982
1037.778	67.53593
1037.937	46.49966
1038.096	47.56851
1038.255	50.49449
1038.414	14.55458
1038.573	67.23828
1038.733	44.83497
1038.892	50.26673
1039.051	72.75305
1039.21	69.46183
1039.369	5.72873
1039.528	59.4982
1039.687	39.17426
1039.846	61.61731
1040.005	18.95763
1040.164	62.19523
1040.322	18.50157
1040.481	54.80404
1040.64	28.3402
1040.799	19.83465
1040.958	68.20126
1041.116	44.4144
1041.275	18.44895
1041.434	49.19799
1041.593	16.65972
1041.751	24.23683
1041.91	53.33256
1042.069	15.4142
1042.227	40.34856
1042.386	87.94348
1042.544	25.20135
1042.703	42.04858
1042.861	26.90234
1043.02	12.72999
1043.178	56.46811
1043.337	88.01346
1043.495	43.81859
1043.653	24.13161
1043.812	20.6941
1043.97	40.33103
1044.129	16.09836
1044.287	43.31038
1044.445	54.43618
1044.603	-0.67756
1044.762	-1.16907
1044.92	69.46183
1045.078	41.996
1045.236	29.39224
1045.394	31.63646
1045.552	77.35658
