Data from deut_45ms_89_SR4014911__0__16-19-33-294.txt Node

Date: Sun Jul 13 16:19:33 EDT 2025
User: cryst
Spectrometer: SR401491
Trigger mode: 0
Integration Time (sec): 4.500000E-2
Scans to average: 89
Electric dark correction enabled: true
Nonlinearity correction enabled: true
Boxcar width: 0
XAxis mode: Wavelengths
Number of Pixels in Spectrum: 3648
>>>>>Begin Spectral Data<<<<<
344.912	-86.74918
345.129	-59.42869
345.347	-62.24769
345.565	-51.62288
345.783	25.90425
346.001	18.61024
346.219	9.13847
346.437	17.11942
346.654	45.21091
346.872	21.79932
347.09	8.51505
347.308	43.58729
347.526	16.33732
347.743	3.56383
347.961	49.76383
348.179	35.67533
348.397	33.13519
348.614	72.39494
348.832	67.6263
349.05	79.21105
349.268	65.72348
349.485	71.61445
349.703	59.47741
349.921	106.98211
350.138	77.47975
350.356	87.32962
350.574	45.22311
350.791	71.95592
351.009	75.34595
351.227	74.22412
351.444	60.81946
351.662	77.7236
351.879	61.88086
352.097	80.79595
352.314	62.57623
352.532	74.11437
352.75	67.30917
352.967	74.2729
353.185	81.63712
353.402	70.0778
353.62	64.38168
353.837	94.49534
354.055	78.88187
354.272	96.32303
354.49	115.83512
354.707	113.49732
354.925	62.45424
355.142	84.80654
355.359	90.07183
355.577	98.13841
355.794	88.47529
356.012	110.246
356.229	69.55337
356.446	63.71075
356.664	76.61406
356.881	101.34245
357.099	75.58983
357.316	75.22402
357.533	87.4515
357.751	74.54116
357.968	135.52798
358.185	109.1865
358.402	78.62584
358.62	108.88203
358.837	90.54712
359.054	72.80956
359.272	65.11358
359.489	73.29735
359.706	82.58799
359.923	101.89064
360.141	94.27601
360.358	96.96879
360.575	93.32556
360.792	96.74947
361.009	73.65099
361.226	81.7956
361.444	108.34617
361.661	86.8299
361.878	85.53789
362.095	69.99243
362.312	105.03333
362.529	93.43523
362.746	92.95999
362.963	61.66126
363.181	77.2237
363.398	86.34235
363.615	114.59319
363.832	58.98937
364.049	59.17239
364.266	128.15394
364.483	91.57079
364.7	76.11414
364.917	56.31722
365.134	98.77194
365.351	83.67291
365.568	102.45099
365.785	78.10157
366.002	80.57651
366.219	72.94371
366.436	109.73452
366.652	95.57979
366.869	95.96969
367.086	100.84299
367.303	68.7728
367.52	75.68737
367.737	116.21255
367.954	97.52924
368.171	74.99234
368.387	119.24404
368.604	89.70622
368.821	85.68416
369.038	69.84608
369.255	80.63746
369.471	73.61441
369.688	103.20623
369.905	109.2961
370.122	86.08639
370.339	87.85371
370.555	67.22379
370.772	80.97881
370.989	124.63658
371.205	67.54092
371.422	98.85722
371.639	78.04061
371.855	122.31171
372.072	81.99065
372.289	65.72348
372.505	112.64495
372.722	65.28435
372.939	93.08185
373.155	107.83466
373.372	86.01326
373.589	91.5586
373.805	77.65045
374.022	69.84608
374.238	75.38253
374.455	88.32903
374.671	103.21841
374.888	96.33522
375.104	61.40506
375.321	61.78326
375.537	86.06201
375.754	93.5449
375.97	90.71773
376.187	113.88697
376.403	87.09804
376.62	74.33387
376.836	73.6266
377.053	79.5768
377.269	82.53923
377.486	61.24646
377.702	51.7288
377.918	55.63389
378.135	84.31896
378.351	97.9313
378.568	83.22188
378.784	77.46756
379	105.39874
379.217	87.37837
379.433	71.04127
379.649	109.28392
379.865	86.93959
380.082	105.80068
380.298	58.28171
380.514	107.37185
380.731	72.29738
380.947	66.29678
381.163	93.42304
381.379	76.26046
381.596	90.6568
381.812	105.76414
382.028	107.32313
382.244	79.06475
382.46	79.589
382.676	112.6206
382.893	82.64894
383.109	80.57651
383.325	66.84567
383.541	96.26211
383.757	59.48961
383.973	86.36673
384.189	125.76851
384.405	86.91521
384.622	79.19886
384.838	100.73335
385.054	98.30898
385.27	101.25718
385.486	89.60872
385.702	62.06385
385.918	89.32841
386.134	87.78058
386.35	105.65452
386.566	106.04428
386.782	113.37556
386.998	102.35354
387.214	94.72686
387.43	91.04677
387.646	118.7449
387.861	97.65108
388.077	92.48474
388.293	90.42525
388.509	103.37676
388.725	86.28141
388.941	101.61045
389.157	79.50365
389.373	103.90054
389.588	94.34912
389.804	100.67244
390.02	122.73775
390.236	82.36856
390.452	76.04098
390.668	74.22412
390.883	121.99522
391.099	110.39213
391.315	105.15513
391.531	84.02641
391.746	80.162
391.962	104.93589
392.178	98.54046
392.393	96.2743
392.609	127.1073
392.825	94.94618
393.041	76.63845
393.256	100.67244
393.472	116.28561
393.687	113.33903
393.903	121.26484
394.119	99.11307
394.334	95.3361
394.55	125.23298
394.766	94.19072
394.981	129.56563
395.197	115.65248
395.412	122.66471
395.628	117.73443
395.843	134.0801
396.059	174.34923
396.274	122.03174
396.49	153.34655
396.705	111.43941
396.921	76.93108
397.136	120.20577
397.352	105.27694
397.567	102.69462
397.783	88.3656
397.998	110.01462
398.214	101.74445
398.429	84.48961
398.644	141.86614
398.86	103.10878
399.075	118.20923
399.29	97.06626
399.506	82.16132
399.721	99.1618
399.936	100.41661
400.152	82.4417
400.367	88.67029
400.582	98.2968
400.798	117.38136
401.013	85.35505
401.228	111.52466
401.444	107.14044
401.659	100.86735
401.874	133.90976
402.089	102.75552
402.304	114.4349
402.52	98.13841
402.735	106.86031
402.95	78.27226
403.165	110.70876
403.38	123.71152
403.596	101.33027
403.811	121.93435
404.026	140.96599
404.241	92.53349
404.456	108.8455
404.671	129.21271
404.886	108.01734
405.101	91.26613
405.316	122.70123
405.532	123.04206
405.747	117.15004
405.962	124.75829
406.177	126.4014
406.392	87.63432
406.607	128.96932
406.822	121.16746
407.037	142.14591
407.252	160.83543
407.467	152.27654
407.682	142.88789
407.896	188.54869
408.111	161.55261
408.326	174.81092
408.541	204.44016
408.756	224.38591
408.971	244.05102
409.186	235.03246
409.401	204.84067
409.616	134.10444
409.83	95.29954
410.045	98.68666
410.26	89.87683
410.475	79.93036
410.69	106.58018
410.905	105.71542
411.119	81.47864
411.334	105.61798
411.549	93.17933
411.764	132.37661
411.978	122.05608
412.193	115.25069
412.408	81.0032
412.623	82.11256
412.837	125.37903
413.052	110.51391
413.267	100.1486
413.481	95.94532
413.696	98.49173
413.911	91.57079
414.125	101.43991
414.34	93.17933
414.554	84.87968
414.769	119.15882
414.984	100.96481
415.198	84.11174
415.413	74.74846
415.627	100.59934
415.842	83.34378
416.056	120.86313
416.271	90.51056
416.485	113.83826
416.7	121.59352
416.914	97.44395
417.129	81.05196
417.343	117.99009
417.558	88.59716
417.772	117.16221
417.987	106.98211
418.201	106.53147
418.415	71.59006
418.63	88.37778
418.844	105.32566
419.059	111.84127
419.273	101.06227
419.487	129.2979
419.702	107.1648
419.916	139.6887
420.13	90.82741
420.345	97.95566
420.559	97.72418
420.773	95.45794
420.988	93.7886
421.202	136.25798
421.416	96.16464
421.63	111.20804
421.845	101.20845
422.059	100.66026
422.273	71.96811
422.487	119.46317
422.701	122.31171
422.916	130.98941
423.13	106.71416
423.344	95.82348
423.558	84.37991
423.772	82.01504
423.986	107.70069
424.201	112.0361
424.415	125.51292
424.629	103.21841
424.843	97.32212
425.057	115.33592
425.271	77.96745
425.485	76.77257
425.699	80.93005
425.913	117.91704
426.127	115.81077
426.341	93.1184
426.555	97.11499
426.769	118.92751
426.983	139.06829
427.197	120.61966
427.411	101.245
427.625	142.38919
427.839	91.69265
428.053	99.96586
428.267	76.24827
428.481	124.18623
428.695	98.23588
428.908	79.7353
429.122	107.46928
429.336	108.57757
429.55	100.68462
429.764	133.44739
429.978	165.1382
430.191	164.33604
430.405	207.87465
430.619	197.26644
430.833	256.96783
431.047	336.06326
431.26	445.73002
431.474	552.96564
431.688	612.74581
431.901	637.45009
432.115	775.18781
432.329	874.86106
432.543	928.18172
432.756	1140.73597
432.97	1175.75909
433.184	804.36846
433.397	359.23845
433.611	156.45906
433.824	136.13632
434.038	116.73609
434.252	99.07652
434.465	93.42304
434.679	97.4074
434.892	115.23851
435.106	73.59002
435.319	75.51666
435.533	113.86262
435.747	107.72504
435.96	81.52741
436.174	129.04234
436.387	120.5101
436.601	117.90487
436.814	126.13364
437.027	76.13853
437.241	109.53967
437.454	83.38035
437.668	122.94468
437.881	134.14094
438.095	96.79821
438.308	117.6979
438.521	145.24752
438.735	108.11477
438.948	123.49243
439.161	106.79942
439.375	113.96003
439.588	132.74165
439.801	119.76752
440.015	118.51359
440.228	132.76599
440.441	134.21394
440.654	148.70145
440.868	140.95383
441.081	100.44097
441.294	128.81111
441.507	122.79861
441.721	105.77632
441.934	127.48458
442.147	117.38136
442.36	107.9808
442.573	130.97724
442.786	83.89232
443	131.18411
443.213	112.64495
443.426	111.47595
443.639	148.75009
443.852	115.32374
444.065	137.5111
444.278	122.62819
444.491	126.15798
444.704	120.41272
444.917	126.85172
445.13	125.97542
445.343	113.72868
445.556	158.93909
445.769	168.24939
445.982	142.97304
446.195	134.61546
446.408	133.20403
446.621	140.85651
446.834	116.50476
447.047	109.92937
447.26	118.83012
447.473	117.52746
447.686	123.41939
447.899	101.57391
448.111	139.16561
448.324	119.97447
448.537	131.19628
448.75	114.90976
448.963	117.36918
449.176	141.46473
449.388	136.46481
449.601	131.537
449.814	112.66931
450.027	108.11477
450.239	125.29384
450.452	116.06645
450.665	110.83054
450.878	119.98664
451.09	119.64578
451.303	124.55138
451.516	118.4162
451.728	129.41959
451.941	96.63982
452.154	140.85651
452.366	135.34548
452.579	96.84695
452.792	149.44326
453.004	118.86664
453.217	112.10917
453.429	117.10134
453.642	102.049
453.854	141.05114
454.067	164.91943
454.28	154.20982
454.492	100.89172
454.705	99.00342
454.917	123.67501
455.13	153.50461
455.342	155.91196
455.555	88.18278
455.767	161.92942
455.979	111.30546
456.192	148.73793
456.404	102.74334
456.617	130.29578
456.829	105.73978
457.041	150.92681
457.254	124.42966
457.466	114.66625
457.679	113.29032
457.891	144.8948
458.103	123.43157
458.315	137.20695
458.528	110.42867
458.74	136.80546
458.952	124.90435
459.165	119.34143
459.377	92.36288
459.589	87.91465
459.801	128.42168
460.014	125.54943
460.226	124.10102
460.438	128.15394
460.65	97.73636
460.862	127.52109
461.075	123.00554
461.287	119.28056
461.499	76.80915
461.711	92.02167
461.923	101.34245
462.135	127.4359
462.347	98.17496
462.559	110.47738
462.771	117.22309
462.983	107.59107
463.196	121.41092
463.408	130.69736
463.62	139.84685
463.832	154.98795
464.044	131.07459
464.256	143.50823
464.468	98.24806
464.68	128.78677
464.891	122.98119
465.103	101.29373
465.315	126.49877
465.527	106.7507
465.739	84.75778
465.951	106.39749
466.163	102.17081
466.375	102.58498
466.587	136.98796
466.799	111.31764
467.01	102.23172
467.222	109.21085
467.434	91.11989
467.646	104.83845
467.858	114.71495
468.069	102.15863
468.281	90.47399
468.493	79.95474
468.705	89.3406
468.916	111.41506
469.128	76.30923
469.34	99.18616
469.551	86.09858
469.763	76.95546
469.975	103.55948
470.186	109.7467
470.398	98.68666
470.61	108.17567
470.821	75.21182
471.033	97.9313
471.245	118.64751
471.456	81.96627
471.668	107.05519
471.879	93.05747
472.091	118.48924
472.302	126.34055
472.514	120.30315
472.725	112.80325
472.937	96.96879
473.148	94.12979
473.36	100.13641
473.571	126.88823
473.783	94.67812
473.994	107.7494
474.206	93.58145
474.417	100.24606
474.629	112.54754
474.84	110.81836
475.051	138.50868
475.263	95.90877
475.474	97.28557
475.685	115.89599
475.897	102.00027
476.108	130.64868
476.319	72.45591
476.531	99.29581
476.742	121.16746
476.953	123.74804
477.165	149.94184
477.376	101.52518
477.587	92.33851
477.798	108.82114
478.01	90.02308
478.221	125.01389
478.432	104.6801
478.643	105.6667
478.854	92.97217
479.065	159.75356
479.277	125.05041
479.488	128.31215
479.699	130.2471
479.91	119.18317
480.121	141.85398
480.332	125.53726
480.543	115.29939
480.754	91.5586
480.965	107.95645
481.176	135.50365
481.387	147.41235
481.598	114.36184
481.809	144.57857
482.02	211.39365
482.231	429.74019
482.442	942.13113
482.653	1924.11379
482.864	3188.87969
483.075	4973.79295
483.286	7073.81058
483.497	9547.92132
483.708	11489.91395
483.919	13142.44914
484.13	14608.67884
484.341	16684.75219
484.551	19588.17787
484.762	22131.44375
484.973	22863.80716
485.184	15650.41528
485.395	5069.03679
485.605	1392.22351
485.816	621.46148
486.027	309.56881
486.238	233.55334
486.449	240.07545
486.659	192.13082
486.87	173.19498
487.081	175.13896
487.291	158.82968
487.502	145.78266
487.713	130.58784
487.923	151.57129
488.134	116.01775
488.345	187.41931
488.555	153.88153
488.766	117.18656
488.976	149.84455
489.187	143.73933
489.398	136.42831
489.608	146.28131
489.819	112.60842
490.029	117.06481
490.24	159.57122
490.45	162.08744
490.661	134.88314
490.871	144.93129
491.082	105.28912
491.292	121.35006
491.503	149.09059
491.713	149.07843
491.924	133.90976
492.134	128.373
492.344	126.97342
492.555	149.62566
492.765	138.18021
492.975	139.95633
493.186	151.21865
493.396	162.22114
493.607	108.32181
493.817	159.52259
494.027	120.5101
494.237	126.37706
494.448	128.81111
494.658	161.24872
494.868	120.30315
495.078	142.72977
495.289	162.52502
495.499	123.38288
495.709	95.81129
495.919	122.64037
496.129	124.21057
496.34	99.27144
496.55	90.94928
496.76	135.05348
496.97	137.20695
497.18	118.13619
497.39	112.35271
497.6	146.52455
497.81	147.65558
498.021	156.98183
498.231	144.23801
498.441	136.6473
498.651	125.732
498.861	100.57498
499.071	121.47179
499.281	147.7772
499.491	123.04206
499.701	137.37727
499.911	129.27356
500.121	122.12912
500.331	133.82458
500.54	180.53277
500.75	132.8755
500.96	146.31779
501.17	129.34658
501.38	141.82965
501.59	138.88581
501.8	130.51482
502.01	87.90246
502.219	132.8755
502.429	143.17982
502.639	155.30406
502.849	135.84432
503.059	133.13103
503.268	134.21394
503.478	128.22696
503.688	131.13543
503.898	124.98955
504.107	124.21057
504.317	171.72476
504.527	132.3036
504.736	133.02152
504.946	111.86562
505.156	148.1542
505.365	118.20923
505.575	128.47036
505.785	120.04751
505.994	144.7975
506.204	128.8963
506.413	132.52263
506.623	94.84871
506.832	116.30996
507.042	140.28478
507.251	141.75666
507.461	134.27478
507.67	130.89206
507.88	111.13498
508.089	129.63864
508.299	124.18623
508.508	131.5735
508.718	94.26383
508.927	104.6801
509.137	137.34077
509.346	141.90263
509.555	105.53272
509.765	123.12726
509.974	213.58977
510.184	149.27301
510.393	115.57943
510.602	130.5635
510.812	155.65665
511.021	135.11431
511.23	156.08217
511.439	117.51528
511.649	116.66304
511.858	138.54518
512.067	133.37438
512.276	141.47689
512.486	223.355
512.695	150.48905
512.904	96.43269
513.113	126.87606
513.322	126.57179
513.531	135.68615
513.741	135.92948
513.95	97.28557
514.159	116.99176
514.368	119.62143
514.577	127.37505
514.786	115.9447
514.995	111.67078
515.204	131.79253
515.413	93.60582
515.622	120.3762
515.831	113.18073
516.04	133.44739
516.249	101.73227
516.458	114.87324
516.667	128.64074
516.876	148.61632
517.085	120.70488
517.294	139.53056
517.503	108.15131
517.712	117.77095
517.921	119.8649
518.13	139.94417
518.339	135.17515
518.547	179.09938
518.756	107.83466
518.965	122.96902
519.174	122.23867
519.383	132.32794
519.591	100.29479
519.8	106.43403
520.009	125.34252
520.218	120.96052
520.426	105.38656
520.635	140.7592
520.844	124.61223
521.053	144.52992
521.261	141.11196
521.47	145.74617
521.679	105.61798
521.887	128.70158
522.096	119.21969
522.304	115.71336
522.513	107.17698
522.722	109.45442
522.93	134.56679
523.139	131.69519
523.347	109.30828
523.556	107.37185
523.764	106.16608
523.973	117.15004
524.182	104.46085
524.39	142.27971
524.598	92.18009
524.807	100.87954
525.015	119.49969
525.224	140.7592
525.432	117.6005
525.641	84.95281
525.849	114.11832
526.057	124.56355
526.266	149.74727
526.474	102.40226
526.683	99.53947
526.891	132.08458
527.099	114.64189
527.308	113.94785
527.516	99.2349
527.724	140.46725
527.932	98.38208
528.141	140.7592
528.349	153.61404
528.557	126.46225
528.765	109.77105
528.974	83.75824
529.182	101.80536
529.39	127.94705
529.598	89.4381
529.806	87.09804
530.015	132.0359
530.223	110.80618
530.431	106.7507
530.639	97.1881
530.847	94.4466
531.055	112.83978
531.263	118.90317
531.471	88.82873
531.679	88.90185
531.887	122.59168
532.095	120.86313
532.303	135.40632
532.511	108.86985
532.719	111.67078
532.927	102.13427
533.135	136.6473
533.343	147.04751
533.551	126.88823
533.759	117.58833
533.967	163.24215
534.175	121.99522
534.383	152.68996
534.591	157.22497
534.798	137.85174
535.006	103.88836
535.214	120.29098
535.422	88.49966
535.63	124.33229
535.837	103.74219
536.045	98.86941
536.253	116.44388
536.461	120.05968
536.668	114.26443
536.876	138.39919
537.084	144.57857
537.292	136.11198
537.499	145.34482
537.707	123.35853
537.915	136.67164
538.122	153.46813
538.33	137.55976
538.538	120.64401
538.745	147.85017
538.953	150.78089
539.16	132.98501
539.368	116.66304
539.575	109.23521
539.783	133.11886
539.99	152.31302
540.198	131.84121
540.406	116.56564
540.613	133.32571
540.82	99.52728
541.028	134.49379
541.235	110.76965
541.443	150.47689
541.65	165.83096
541.858	138.53301
542.065	125.99976
542.272	124.62441
542.48	166.46293
542.687	115.95687
542.895	149.4919
543.102	118.3188
543.309	131.95072
543.516	144.85831
543.724	118.52577
543.931	124.75829
544.138	123.85759
544.346	133.64207
544.553	121.43527
544.76	123.13943
544.967	116.0908
545.174	142.77842
545.382	108.7846
545.589	143.08251
545.796	141.06331
546.003	118.86664
546.21	124.68526
546.417	178.68636
546.624	141.06331
546.832	131.19628
547.039	120.64401
547.246	156.11864
547.453	119.56056
547.66	126.03627
547.867	135.79565
548.074	126.85172
548.281	111.8778
548.488	127.64279
548.695	117.44223
548.902	130.22276
549.109	120.41272
549.316	109.78323
549.523	100.50189
549.73	121.66655
549.936	121.75176
550.143	116.72391
550.35	104.741
550.557	101.87845
550.764	99.49074
550.971	128.0079
551.178	113.74085
551.384	138.14371
551.591	139.932
551.798	152.96962
552.005	111.73167
552.211	140.91733
552.418	125.36686
552.625	105.20386
552.832	129.7725
553.038	124.30794
553.245	121.0579
553.452	149.96616
553.658	105.28912
553.865	105.41092
554.072	124.64875
554.278	129.46827
554.485	167.93343
554.691	153.29791
554.898	114.32531
555.105	155.38917
555.311	124.66092
555.518	156.14296
555.724	147.15696
555.931	95.21425
556.137	103.49857
556.344	119.4023
556.55	131.35447
556.757	125.03824
556.963	113.86262
557.17	129.21271
557.376	130.34446
557.582	159.21869
557.789	114.58101
557.995	116.0421
558.202	118.64751
558.408	131.26929
558.614	101.29373
558.821	138.56951
559.027	140.60106
559.233	144.7002
559.439	161.91727
559.646	130.53916
559.852	145.45428
560.058	134.22611
560.264	151.19433
560.471	128.21479
560.677	141.2701
560.883	158.00302
561.089	154.65968
561.295	119.14665
561.502	125.51292
561.708	128.20262
561.914	147.7772
562.12	137.19478
562.326	148.77441
562.532	150.33097
562.738	150.02696
562.944	119.47534
563.15	127.49675
563.356	111.40288
563.562	121.03355
563.768	151.01193
563.974	106.45839
564.18	147.71639
564.386	124.44183
564.592	126.26752
564.798	126.20667
565.004	157.15203
565.21	96.94442
565.416	152.41029
565.622	131.15977
565.828	149.51622
566.034	154.25845
566.239	131.86555
566.445	164.85866
566.651	163.42447
566.857	185.12399
567.063	163.94711
567.268	183.59367
567.474	199.43938
567.68	186.53278
567.886	197.88556
568.091	197.46067
568.297	187.29787
568.503	201.91561
568.708	216.10115
568.914	222.50598
569.12	229.53992
569.325	208.61489
569.531	219.40079
569.737	183.44792
569.942	186.90926
570.148	227.44205
570.353	273.82605
570.559	259.22101
570.765	235.17794
570.97	245.08119
571.176	273.26911
571.381	205.71449
571.587	183.29002
571.792	191.20801
571.998	203.02013
572.203	204.25811
572.408	267.12996
572.614	286.1486
572.819	266.10059
573.025	246.63243
573.23	238.83903
573.435	231.07988
573.641	234.59601
573.846	217.44774
574.051	233.26235
574.257	262.56411
574.462	261.53457
574.667	239.29966
574.873	227.32078
575.078	269.22493
575.283	251.05542
575.488	275.53312
575.694	296.57873
575.899	239.74817
576.104	259.75399
576.309	279.95167
576.514	296.7481
576.719	361.23026
576.925	393.31023
577.13	342.5986
577.335	315.2154
577.54	281.30736
577.745	237.96623
577.95	255.10216
578.155	236.43877
578.36	222.78495
578.565	249.86794
578.77	302.62698
578.975	325.09128
579.18	284.58739
579.385	305.67482
579.59	354.56623
579.795	281.39209
580	228.99425
580.205	247.6625
580.41	351.95815
580.615	506.86732
580.82	536.38281
581.024	446.42818
581.229	417.88689
581.434	400.61661
581.639	317.01675
581.844	264.06596
582.049	239.89363
582.253	283.53443
582.458	255.69579
582.663	201.4665
582.868	210.59281
583.072	207.01303
583.277	269.67297
583.482	287.4556
583.686	308.79489
583.891	280.41164
584.096	288.81094
584.3	334.11809
584.505	273.72919
584.71	309.593
584.914	313.22048
585.119	303.13497
585.323	271.56191
585.528	219.74044
585.733	229.49142
585.937	259.05142
586.142	188.65798
586.346	281.81573
586.551	252.78807
586.755	264.15074
586.959	338.40697
587.164	318.818
587.368	262.78212
587.573	300.77635
587.777	445.00777
587.982	1447.86324
588.186	3398.20089
588.39	1474.18221
588.595	905.91799
588.799	1854.51539
589.003	799.28446
589.208	323.29041
589.412	267.97766
589.616	241.49363
589.82	245.32358
590.025	195.29972
590.229	196.75656
590.433	212.36434
590.637	198.07979
590.842	257.51297
591.046	273.69287
591.25	239.25118
591.454	181.92965
591.658	219.53422
591.862	294.07439
592.067	450.83344
592.271	362.79947
592.475	297.61912
592.679	321.13891
592.883	286.63268
593.087	293.19117
593.291	255.07793
593.495	222.12998
593.699	225.07721
593.903	284.09118
594.107	358.86421
594.311	354.05912
594.515	324.63201
594.719	263.42405
594.923	263.50883
595.127	269.64875
595.33	261.53457
595.534	192.68935
595.738	280.98055
595.942	253.58773
596.146	223.14881
596.35	257.4524
596.553	234.66875
596.757	238.8754
596.961	341.20951
597.165	261.1712
597.369	197.97054
597.572	207.09798
597.776	221.03834
597.98	284.72052
598.183	336.65525
598.387	309.35115
598.591	256.61651
598.794	241.61484
598.998	257.8037
599.202	277.85748
599.405	319.3378
599.609	275.02464
599.812	311.56398
600.016	315.04614
600.22	348.44414
600.423	336.57068
600.627	303.13497
600.83	250.93425
601.034	330.22735
601.237	356.46176
601.441	216.71986
601.644	246.17191
601.847	313.81292
602.051	271.61034
602.254	259.4875
602.458	289.36758
602.661	348.13015
602.864	280.08482
603.068	245.12967
603.271	217.88446
603.475	229.98858
603.678	244.8994
603.881	232.28026
604.084	196.79298
604.288	206.98876
604.491	266.20959
604.694	269.99991
604.897	198.32258
605.101	239.27542
605.304	266.4639
605.507	220.05582
605.71	200.67752
605.913	260.20217
606.116	270.07256
606.32	265.18018
606.523	224.31314
606.726	236.62061
606.929	247.50496
607.132	252.63056
607.335	266.65767
607.538	222.70004
607.741	198.77174
607.944	181.43164
608.147	172.36875
608.35	218.03003
608.553	209.54926
608.756	220.40759
608.959	225.12572
609.162	279.47958
609.365	245.08119
609.568	251.97628
609.771	176.49966
609.973	238.3299
610.176	241.40878
610.379	206.0543
610.582	196.29523
610.785	231.79526
610.988	222.08146
611.19	191.40229
611.393	182.79204
611.596	176.18379
611.799	186.55707
612.001	225.84126
612.204	185.94984
612.407	196.85368
612.609	198.15263
612.812	234.71724
613.015	223.5248
613.217	224.9438
613.42	175.3455
613.623	201.1145
613.825	220.73509
614.028	241.28757
614.23	198.27403
614.433	187.0307
614.636	197.98268
614.838	240.76637
615.041	246.97175
615.243	177.82385
615.446	146.7313
615.648	158.82968
615.85	171.42099
616.053	130.39313
616.255	198.43184
616.458	175.74642
616.66	167.25288
616.863	150.34313
617.065	163.6554
617.267	183.73942
617.47	169.71979
617.672	167.99419
617.874	159.83865
618.077	162.78027
618.279	175.2969
618.481	193.09003
618.683	146.58536
618.886	136.35531
619.088	205.72662
619.29	191.85155
619.492	145.02859
619.694	160.59232
619.897	172.47811
620.099	140.29694
620.301	106.50711
620.503	107.518
620.705	150.48905
620.907	145.84347
621.109	118.29445
621.311	168.58966
621.513	175.46699
621.715	174.71372
621.917	170.31522
622.119	180.48419
622.321	152.87234
622.523	169.36739
622.725	133.70291
622.927	144.39613
623.129	142.7541
623.331	155.40133
623.533	134.43295
623.735	161.68632
623.937	168.44383
624.139	135.80782
624.341	151.99687
624.542	127.60628
624.744	105.61798
624.946	155.04874
625.148	129.9307
625.35	145.6732
625.551	117.63703
625.753	109.60056
625.955	125.09909
626.156	146.06239
626.358	149.07843
626.56	131.96289
626.762	161.06639
626.963	150.99977
627.165	130.07674
627.366	155.8147
627.568	141.46473
627.77	138.87364
627.971	153.03041
628.173	137.73008
628.374	115.98122
628.576	137.74225
628.777	173.15853
628.979	113.9235
629.18	95.47013
629.382	121.45961
629.583	142.90006
629.785	150.64713
629.986	112.23094
630.188	126.97342
630.389	131.52483
630.591	143.17982
630.792	96.93223
630.993	91.8267
631.195	94.81215
631.396	113.85044
631.597	106.38531
631.799	110.36778
632	132.72949
632.201	104.741
632.402	130.85555
632.604	150.89033
632.805	108.48014
633.006	117.77095
633.207	136.52564
633.409	144.55425
633.61	110.01462
633.811	111.62208
634.012	126.23101
634.213	128.59206
634.414	126.62047
634.615	116.20038
634.816	137.79091
635.017	137.42593
635.219	133.5934
635.42	130.85555
635.621	132.82683
635.822	152.86018
636.023	130.19843
636.224	135.71049
636.425	122.81078
636.626	126.79086
636.826	96.01843
637.027	151.80232
637.228	108.4436
637.429	101.35464
637.63	109.17432
637.831	91.87544
638.032	102.00027
638.233	107.76158
638.433	96.9566
638.634	124.61223
638.835	116.49258
639.036	135.54015
639.237	74.73627
639.437	74.99234
639.638	93.86172
639.839	107.87119
640.039	72.71201
640.24	122.28736
640.441	89.94996
640.641	83.16093
640.842	120.10838
641.043	91.13207
641.243	73.90707
641.444	95.43357
641.645	119.26839
641.845	94.54408
642.046	88.59716
642.246	88.79216
642.447	59.63602
642.647	99.19835
642.848	106.70198
643.048	112.304
643.249	107.4571
643.449	101.96373
643.65	85.08689
643.85	73.57782
644.05	99.5151
644.251	81.42988
644.451	102.84079
644.651	105.31348
644.852	89.03591
645.052	89.12123
645.252	84.34334
645.453	70.00463
645.653	77.30905
645.853	80.95443
646.054	76.62625
646.254	77.97964
646.454	55.71931
646.654	75.16305
646.854	86.01326
647.055	120.36402
647.255	70.40709
647.455	128.2513
647.655	97.87038
647.855	107.57889
648.055	89.60872
648.255	88.64591
648.455	101.06227
648.655	96.31085
648.856	98.2237
649.056	107.15262
649.256	111.78038
649.456	88.20715
649.656	91.80232
649.856	107.82248
650.055	85.61102
650.255	132.55913
650.455	125.65897
650.655	137.10962
650.855	135.97815
651.055	204.61007
651.255	186.49635
651.455	204.90135
651.655	139.4819
651.854	159.7414
652.054	117.17439
652.254	150.25801
652.454	183.44792
652.654	189.55659
652.853	268.01399
653.053	356.9809
653.253	672.78643
653.452	1963.7068
653.652	7376.74224
653.852	18947.47822
654.051	37877.64975
654.251	63325.81642
654.451	63428.25186
654.65	63428.25186
654.85	63428.25186
655.049	63428.25186
655.249	63428.25186
655.449	63428.25186
655.648	63428.25186
655.848	63428.25186
656.047	63428.25186
656.247	63428.25186
656.446	63428.25186
656.645	60673.11228
656.845	17668.59916
657.044	5502.92549
657.244	3770.7497
657.443	2557.61709
657.643	2054.7742
657.842	1602.38683
658.041	1399.43441
658.241	1215.356
658.44	1092.9859
658.639	957.34367
658.839	945.27375
659.038	840.95852
659.237	771.16013
659.436	724.90309
659.636	699.83418
659.835	643.18062
660.034	625.31574
660.233	584.02017
660.432	547.24303
660.631	551.01023
660.831	532.31377
661.03	488.50514
661.229	501.4367
661.428	469.45854
661.627	462.31303
661.826	453.36076
662.025	429.4391
662.224	400.99033
662.423	388.98102
662.622	365.02036
662.821	371.00629
663.02	397.67498
663.219	334.46847
663.418	366.84282
663.617	368.85826
663.816	351.6442
664.015	299.15544
664.214	310.56037
664.412	308.52885
664.611	306.54557
664.81	292.23532
665.009	323.65301
665.208	290.66233
665.406	265.8826
665.605	279.97588
665.804	260.86838
666.003	254.30255
666.201	235.62651
666.4	232.32876
666.599	247.82004
666.798	234.11105
666.996	240.47546
667.195	215.60375
667.394	210.55641
667.592	248.68042
667.791	221.86314
667.989	232.41363
668.188	228.21816
668.386	246.58395
668.585	217.19299
668.783	231.05563
668.982	229.43079
669.18	241.54211
669.379	209.53713
669.577	181.56526
669.776	178.03037
669.974	214.29347
670.173	202.7531
670.371	196.38022
670.57	197.88556
670.768	198.71104
670.966	209.51286
671.165	211.93967
671.363	186.30204
671.561	201.33299
671.76	220.43185
671.958	226.73868
672.156	198.27403
672.354	164.39681
672.553	188.5244
672.751	156.25238
672.949	178.26118
673.147	198.49253
673.345	164.88297
673.543	177.0585
673.742	148.88386
673.94	154.17334
674.138	161.83218
674.336	151.5956
674.534	162.35485
674.732	184.66247
674.93	155.83901
675.128	134.7858
675.326	148.62848
675.524	136.46481
675.722	172.18649
675.92	156.47121
676.118	141.28226
676.316	156.6171
676.514	160.71388
676.712	136.27015
676.91	158.56223
677.108	145.32049
677.305	176.14734
677.503	146.01374
677.701	148.81089
677.899	127.56977
678.097	145.4786
678.295	138.56951
678.492	124.47835
678.69	178.99005
678.888	135.00481
679.085	174.36138
679.283	140.58889
679.481	125.30601
679.679	132.63214
679.876	121.39875
680.074	137.31644
680.271	129.74817
680.469	132.5713
680.667	131.05025
680.864	135.86865
681.062	135.60098
681.259	152.11847
681.457	92.66753
681.654	137.18261
681.852	109.94155
682.049	122.5795
682.247	117.11351
682.444	114.14267
682.642	140.24828
682.839	117.13786
683.037	124.00365
683.234	143.2528
683.431	122.87164
683.629	104.99679
683.826	98.60138
684.023	124.92869
684.221	146.97454
684.418	152.43461
684.615	145.42995
684.813	157.8693
685.01	150.97545
685.207	123.27333
685.404	95.28736
685.601	144.45694
685.799	149.86887
685.996	130.45398
686.193	109.92937
686.39	105.89812
686.587	115.74989
686.784	134.88314
686.981	133.30138
687.179	120.33967
687.376	100.44097
687.573	129.82118
687.77	137.41377
687.967	112.97373
688.164	115.23851
688.361	105.3622
688.558	97.07844
688.755	92.58223
688.952	142.74193
689.148	101.45209
689.345	110.53827
689.542	107.39621
689.739	95.37265
689.936	89.84027
690.133	117.39353
690.33	101.33027
690.526	122.53081
690.723	154.89069
690.92	117.75878
691.117	100.1486
691.314	95.55542
691.51	88.41435
691.707	93.00873
691.904	94.75123
692.1	128.66508
692.297	102.35354
692.494	91.25394
692.69	157.23713
692.887	130.69736
693.084	113.3025
693.28	93.81297
693.477	110.55045
693.673	93.82516
693.87	101.14754
694.066	91.24175
694.263	85.34287
694.459	91.05896
694.656	96.43269
694.852	94.22727
695.049	98.84504
695.245	118.23358
695.442	115.21416
695.638	76.57748
695.834	91.44892
696.031	88.32903
696.227	104.87499
696.423	124.73395
696.62	124.55138
696.816	129.11535
697.012	80.93005
697.209	99.39327
697.405	126.20667
697.601	126.64482
697.797	91.33924
697.994	90.49837
698.19	79.52804
698.386	107.1039
698.582	119.97447
698.778	79.60119
698.974	71.34616
699.17	82.79522
699.367	96.9566
699.563	116.40736
699.759	77.96745
699.955	80.17419
700.151	89.74278
700.347	83.70948
700.543	106.71416
700.739	122.15346
700.935	80.90567
701.131	69.72412
701.327	80.52774
701.523	114.89759
701.718	85.35505
701.914	94.81215
702.11	112.18223
702.306	116.00557
702.502	94.90963
702.698	55.79252
702.894	83.89232
703.089	85.68416
703.285	91.44892
703.481	72.87054
703.677	81.72246
703.872	80.18638
704.068	87.59776
704.264	56.54906
704.459	53.37633
704.655	55.34103
704.851	75.88247
705.046	49.95911
705.242	56.8053
705.438	58.40372
705.633	75.73615
705.829	61.13666
706.024	88.91404
706.22	112.6206
706.415	98.38208
706.611	82.96589
706.806	120.66836
707.002	81.47864
707.197	95.0924
707.393	93.06966
707.588	77.99184
707.784	88.42653
707.979	81.74684
708.174	60.03864
708.37	91.14426
708.565	72.89493
708.76	77.45537
708.956	77.35782
709.151	79.21105
709.346	68.73621
709.542	61.49046
709.737	54.30378
709.932	97.55361
710.127	81.4055
710.322	76.17511
710.518	73.91926
710.713	52.90038
710.908	40.3886
711.103	80.39364
711.298	84.79435
711.493	56.46365
711.688	59.11138
711.883	75.71176
712.078	89.15779
712.273	91.97293
712.468	41.34092
712.663	80.79595
712.858	86.2936
713.053	87.98777
713.248	74.12657
713.443	83.39254
713.638	70.62662
713.833	63.27158
714.028	83.30721
714.223	113.36338
714.418	124.01582
714.613	69.88267
714.807	119.451
715.002	63.53996
715.197	65.43073
715.392	42.02462
715.587	48.20152
715.781	67.10182
715.976	60.44125
716.171	100.7699
716.365	77.49194
716.56	93.73986
716.755	59.58722
716.949	74.2729
717.144	83.64853
717.339	68.38251
717.533	62.38104
717.728	91.97293
717.922	52.41223
718.117	60.22165
718.312	87.74401
718.506	82.10037
718.701	115.89599
718.895	118.2701
719.089	72.69981
719.284	75.93124
719.478	55.6705
719.673	52.79055
719.867	85.67197
720.062	76.11414
720.256	59.06258
720.45	70.24855
720.645	34.69838
720.839	80.39364
721.033	78.17472
721.228	52.99801
721.422	78.49172
721.616	57.69604
721.81	77.63825
722.005	86.28141
722.199	88.09746
722.393	49.65398
722.587	60.91706
722.781	77.95526
722.975	82.36856
723.169	71.63884
723.364	70.98029
723.558	39.60719
723.752	62.67382
723.946	105.08205
724.14	69.85827
724.334	72.41933
724.528	58.84296
724.722	60.08744
724.916	80.5887
725.11	87.0371
725.304	77.61387
725.498	88.97498
725.692	64.28409
725.885	81.14949
726.079	107.29877
726.273	60.24605
726.467	55.65829
726.661	50.85007
726.855	80.49117
727.048	94.22727
727.242	57.56182
727.436	81.4055
727.63	60.13624
727.823	94.04449
728.017	43.96574
728.211	58.98937
728.405	84.14831
728.598	64.67444
728.792	66.45535
728.986	97.12718
729.179	66.51634
729.373	70.26074
729.566	70.10219
729.76	76.96766
729.953	66.44315
730.147	96.87131
730.34	62.83241
730.534	130.22276
730.727	91.32706
730.921	93.82516
731.114	92.65535
731.308	75.90685
731.501	74.52897
731.695	60.45345
731.888	70.68759
732.081	66.68711
732.275	70.17537
732.468	84.30677
732.661	72.82176
732.855	60.75846
733.048	61.73446
733.241	51.14298
733.434	84.22144
733.628	86.58613
733.821	89.10904
734.014	78.24788
734.207	97.39522
734.4	45.47947
734.594	69.32164
734.787	71.34616
734.98	69.72412
735.173	86.63488
735.366	32.03602
735.559	103.43767
735.752	51.63116
735.945	55.51186
736.138	48.51887
736.331	77.57729
736.524	95.94532
736.717	66.58953
736.91	73.71196
737.103	78.32103
737.296	61.14886
737.489	82.21008
737.682	23.03331
737.875	48.93387
738.067	77.00423
738.26	81.62493
738.453	83.03903
738.646	78.11376
738.839	72.2608
739.031	77.66264
739.224	68.041
739.417	90.36431
739.61	86.74458
739.802	69.1265
739.995	39.08216
740.188	95.23862
740.38	63.83274
740.573	67.38236
740.765	49.09254
740.958	30.19175
741.151	66.41876
741.343	46.44381
741.536	48.67755
741.728	45.1987
741.921	72.61445
742.113	54.31598
742.306	45.95554
742.498	63.53996
742.691	58.42812
742.883	45.11325
743.076	37.93439
743.268	51.31385
743.46	72.77298
743.653	40.52291
743.845	65.17457
744.037	65.12578
744.23	54.7919
744.422	74.89479
744.614	54.51123
744.807	48.00623
744.999	48.10387
745.191	65.76008
745.383	58.2085
745.575	51.24062
745.768	56.47585
745.96	66.7359
746.152	61.22206
746.344	53.74243
746.536	79.7231
746.728	77.7358
746.92	75.85808
747.112	55.15799
747.304	59.00157
747.496	61.90526
747.688	39.59498
747.88	35.08917
748.072	76.56529
748.264	54.81631
748.456	49.80045
748.648	46.9809
748.84	55.08477
749.032	52.41223
749.224	65.86986
749.416	73.93146
749.608	87.57338
749.799	66.57733
749.991	67.73607
750.183	80.79595
750.375	37.88554
750.567	61.78326
750.758	19.95434
750.95	50.6548
751.142	45.06442
751.333	48.17711
751.525	62.47863
751.717	73.71196
751.908	96.14027
752.1	52.14374
752.292	48.76299
752.483	69.91925
752.675	52.66851
752.866	69.89486
753.058	110.72094
753.249	90.44962
753.441	53.41294
753.632	40.10778
753.824	40.22988
754.015	57.47641
754.207	76.67502
754.398	74.85821
754.589	52.66851
754.781	53.74243
754.972	54.18175
755.164	66.2236
755.355	59.95324
755.546	70.40709
755.738	56.29282
755.929	49.84927
756.12	96.82258
756.311	89.53559
756.503	66.65051
756.694	88.23153
756.885	69.65094
757.076	110.22164
757.267	106.31223
757.458	93.59364
757.65	83.41692
757.841	92.71627
758.032	100.94045
758.223	101.647
758.414	88.10965
758.605	101.15972
758.796	52.13153
758.987	93.92264
759.178	57.03714
759.369	38.93564
759.56	61.02686
759.751	63.56436
759.942	73.21199
760.133	50.09337
760.324	64.78423
760.514	70.71199
760.705	83.75824
760.896	58.17189
761.087	70.17537
761.278	56.30502
761.468	40.20546
761.659	91.53423
761.85	65.77228
762.041	46.85884
762.231	74.98014
762.422	44.41742
762.613	77.45537
762.803	65.29655
762.994	97.3343
763.185	48.3602
763.375	66.79688
763.566	67.67509
763.757	53.21768
763.947	72.11446
764.138	84.14831
764.328	86.81771
764.519	79.80845
764.709	73.10224
764.9	58.36711
765.09	61.47826
765.281	62.61283
765.471	55.38984
765.661	41.54848
765.852	63.51556
766.042	67.96781
766.232	26.42953
766.423	33.526
766.613	55.19459
766.803	40.24209
766.994	65.97964
767.184	56.43924
767.374	99.14962
767.564	83.67291
767.755	68.21175
767.945	39.31415
768.135	53.52277
768.325	80.25953
768.515	82.74646
768.706	62.94221
768.896	70.33392
769.086	70.65101
769.276	93.82516
769.466	45.44284
769.656	58.57454
769.846	67.33357
770.036	76.65064
770.226	59.08698
770.416	54.19395
770.606	58.35491
770.796	98.89377
770.986	73.21199
771.176	41.81707
771.366	43.55067
771.555	72.04128
771.745	38.14197
771.935	68.0166
772.125	45.28415
772.315	58.68435
772.504	66.68711
772.694	55.15799
772.884	76.61406
773.074	31.24215
773.263	59.95324
773.453	60.06304
773.643	82.62456
773.832	70.65101
774.022	74.21192
774.212	58.62334
774.401	32.58561
774.591	29.95968
774.781	29.16574
774.97	67.72387
775.16	31.27879
775.349	38.45944
775.539	27.8954
775.728	31.81618
775.918	67.69948
776.107	98.5892
776.297	134.06793
776.486	255.46561
776.675	279.49169
776.865	227.51481
777.054	94.67812
777.243	90.10839
777.433	63.052
777.622	84.02641
777.811	70.78516
778.001	68.66303
778.19	52.11933
778.379	44.57612
778.568	73.54124
778.758	51.65557
778.947	49.71501
779.136	70.44368
779.325	60.24605
779.514	25.18349
779.703	73.77293
779.892	40.01011
780.082	39.0089
780.271	32.42684
780.46	58.65994
780.649	66.45535
780.838	52.18035
781.027	34.85714
781.216	38.47165
781.405	44.89352
781.594	69.15089
781.783	74.12657
781.971	83.08779
782.16	48.61652
782.349	88.09746
782.538	41.75603
782.727	67.12621
782.916	30.50932
783.105	70.82175
783.293	59.50181
783.482	76.1873
783.671	75.67518
783.86	49.91029
784.048	34.99147
784.237	13.80756
784.426	41.7194
784.614	39.96127
784.803	59.57502
784.992	4.9576
785.18	42.03683
785.369	55.51186
785.557	50.38629
785.746	60.28265
785.935	58.76975
786.123	50.10557
786.312	42.76934
786.5	59.81903
786.689	52.72953
786.877	34.46635
787.065	62.58843
787.254	8.14832
787.442	30.06961
787.631	48.71416
787.819	68.69962
788.007	69.23627
788.196	55.03596
788.384	66.35777
788.572	88.69466
788.761	25.1224
788.949	42.58622
789.137	53.18107
789.325	50.60598
789.513	34.40529
789.702	44.72261
789.89	62.74702
790.078	43.58729
790.266	21.86041
790.454	32.97643
790.642	31.63298
790.83	69.61435
791.018	44.35639
791.207	56.02437
791.395	65.57711
791.583	36.92089
791.771	83.4413
791.959	51.20401
792.146	25.14684
792.334	32.18258
792.522	38.0687
792.71	43.97795
792.898	38.45944
793.086	69.4436
793.274	34.5152
793.462	77.4066
793.65	73.30954
793.837	44.24652
794.025	53.86446
794.213	29.67875
794.401	61.85646
794.588	54.73089
794.776	21.1762
794.964	16.55729
795.151	35.58985
795.339	55.53627
795.527	28.75044
795.714	20.82186
795.902	24.42606
796.089	31.69405
796.277	30.50932
796.465	68.66303
796.652	41.91474
796.84	48.10387
797.027	47.56681
797.215	46.32175
797.402	69.73631
797.59	70.93151
797.777	33.69698
797.964	31.3765
798.152	23.66861
798.339	63.55216
798.526	24.68261
798.714	32.28029
798.901	35.38225
799.088	65.71129
799.276	38.43502
799.463	56.06097
799.65	35.41889
799.837	55.6705
800.025	15.60408
800.212	62.55183
800.399	45.62595
800.586	29.01917
800.773	24.52379
800.96	24.87807
801.148	59.50181
801.335	66.49194
801.522	64.41827
801.709	16.55729
801.896	46.85884
802.083	49.0071
802.27	25.57441
802.457	35.35783
802.644	37.64133
802.831	53.48616
803.018	27.38235
803.204	44.02678
803.391	36.76214
803.578	37.84891
803.765	33.29396
803.952	67.57751
804.139	29.94747
804.326	63.47897
804.512	30.47267
804.699	63.52776
804.886	34.49078
805.073	37.7146
805.259	45.56492
805.446	114.04526
805.633	53.79124
805.819	71.29737
806.006	54.95054
806.192	44.16106
806.379	8.93067
806.566	33.56264
806.752	57.34219
806.939	25.13462
807.125	10.88642
807.312	65.45513
807.498	52.82716
807.685	59.09918
807.871	28.39621
808.058	73.21199
808.244	64.71104
808.43	54.66987
808.617	42.81818
808.803	53.32751
808.99	30.77802
809.176	41.36534
809.362	23.92516
809.549	37.2628
809.735	38.14197
809.921	12.56092
810.107	56.01216
810.293	38.76469
810.48	57.08595
810.666	53.6326
810.852	28.42064
811.038	43.13559
811.224	36.3836
811.41	49.28782
811.597	64.32068
811.783	20.50418
811.969	21.94594
812.155	11.42423
812.341	25.07354
812.527	48.64093
812.713	38.81353
812.899	32.37799
813.085	47.15179
813.271	54.86512
813.456	59.3554
813.642	22.03146
813.828	38.3007
814.014	66.38217
814.2	43.36755
814.386	46.39499
814.572	1.97435
814.757	51.1918
814.943	73.38271
815.129	50.94771
815.315	41.0357
815.5	46.88325
815.686	57.14696
815.872	21.28616
816.057	31.31543
816.243	64.36948
816.429	26.36845
816.614	36.21264
816.8	18.85462
816.985	45.38181
817.171	31.44978
817.356	57.64723
817.542	45.96775
817.727	51.91186
817.913	9.59075
818.098	27.62666
818.284	26.75936
818.469	30.83909
818.655	39.68044
818.84	75.27279
819.025	24.0229
819.211	60.84386
819.396	58.85516
819.581	14.84638
819.767	19.20898
819.952	55.09697
820.137	51.10637
820.322	56.36603
820.508	85.68416
820.693	60.45345
820.878	40.35197
821.063	37.16511
821.248	66.79688
821.433	20.06431
821.618	41.49964
821.804	33.46494
821.989	31.54749
822.174	45.74802
822.359	72.88273
822.544	13.09869
822.729	43.34313
822.914	7.84272
823.099	30.11847
823.284	23.75413
823.469	27.44343
823.653	50.22762
823.838	37.23837
824.023	34.44193
824.208	34.86935
824.393	60.66086
824.578	45.25974
824.762	6.43687
824.947	23.80299
825.132	39.19205
825.317	36.09052
825.501	38.08091
825.686	41.42639
825.871	28.7993
826.056	40.99907
826.24	54.84071
826.425	52.3146
826.609	25.17127
826.794	23.11883
826.979	47.67666
827.163	45.69919
827.348	29.05581
827.532	17.25384
827.717	32.82987
827.901	18.69577
828.086	50.36188
828.27	12.84203
828.455	48.67755
828.639	45.8823
828.823	39.27752
829.008	19.75884
829.192	31.91389
829.376	44.80806
829.561	19.40449
829.745	18.35363
829.929	12.81758
830.114	39.09437
830.298	83.1975
830.482	25.63549
830.666	41.67057
830.85	19.2212
831.035	40.07115
831.219	8.55172
831.403	16.54507
831.587	9.63964
831.771	71.46811
831.955	50.78905
832.139	46.88325
832.323	46.16306
832.507	14.5164
832.691	13.89311
832.875	15.53076
833.059	12.19425
833.243	2.72019
833.427	28.72602
833.611	27.54115
833.795	3.46601
833.979	54.53564
834.163	18.50026
834.346	53.2787
834.53	30.81466
834.714	53.31531
834.898	33.36724
835.082	39.4973
835.265	40.53512
835.449	32.26807
835.633	8.95511
835.816	43.01351
836	12.15758
836.184	38.1786
836.367	47.32268
836.551	42.39088
836.735	43.62392
836.918	3.97952
837.102	22.23916
837.285	23.17992
837.469	41.14558
837.652	54.60886
837.836	22.00703
838.019	29.15353
838.203	36.7133
838.386	26.61277
838.569	16.49619
838.753	75.38253
838.936	14.5164
839.12	33.34281
839.303	29.87418
839.486	48.81181
839.669	19.991
839.853	34.35644
840.036	22.52017
840.219	23.76634
840.402	8.56395
840.586	44.58833
840.769	41.65836
840.952	13.95422
841.135	57.23237
841.318	31.95053
841.501	10.69085
841.684	10.77641
841.868	49.33665
842.051	34.49078
842.234	28.6283
842.417	15.15191
842.6	34.64954
842.783	54.76749
842.966	21.15176
843.149	85.20879
843.331	42.09787
843.514	104.83845
843.697	121.59352
843.88	136.48914
844.063	83.75824
844.246	62.28344
844.429	33.03749
844.611	35.10138
844.794	42.75713
844.977	45.01559
845.16	38.64259
845.342	48.60431
845.525	28.66494
845.708	25.29343
845.89	21.43278
846.073	20.29647
846.256	31.75511
846.438	32.70774
846.621	63.49117
846.803	33.2329
846.986	7.59823
847.168	26.25851
847.351	44.3808
847.533	36.88426
847.716	40.65721
847.898	58.29391
848.081	-8.70209
848.263	35.89514
848.446	21.61605
848.628	50.4229
848.81	15.56742
848.993	22.45908
849.175	8.16055
849.357	34.83272
849.539	26.56391
849.722	23.8763
849.904	15.77517
850.086	36.54234
850.268	67.11402
850.451	73.1754
850.633	31.90167
850.815	21.21285
850.997	52.339
851.179	28.24963
851.361	20.44309
851.543	30.50932
851.725	30.97344
851.907	22.66678
852.089	48.89725
852.271	30.11847
852.453	58.28171
852.635	52.90038
852.817	22.80118
852.999	43.25767
853.181	9.30961
853.363	31.41314
853.545	31.53527
853.727	31.54749
853.908	30.71695
854.09	46.08982
854.272	73.82171
854.454	33.51379
854.636	35.68754
854.817	19.90547
854.999	27.17469
855.181	35.19907
855.362	31.22993
855.544	22.2636
855.726	40.27872
855.907	28.54279
856.089	14.63862
856.27	42.21996
856.452	31.26657
856.634	56.85411
856.815	36.95752
856.997	50.55716
857.178	17.24162
857.36	14.18643
857.541	12.12092
857.722	17.09498
857.904	27.15026
858.085	42.57401
858.267	52.07051
858.448	24.59709
858.629	44.12444
858.811	25.37895
858.992	34.79608
859.173	38.8868
859.354	35.96841
859.536	70.45588
859.717	13.96644
859.898	27.49229
860.079	20.58971
860.26	42.42751
860.441	47.67666
860.623	25.94089
860.804	19.39227
860.985	46.70015
861.166	40.14441
861.347	9.30961
861.528	-7.72355
861.709	53.12005
861.89	24.26724
862.071	56.74429
862.252	15.82406
862.433	16.19067
862.614	79.1379
862.794	19.67331
862.975	32.56119
863.156	70.50466
863.337	9.90856
863.518	47.53019
863.699	24.98802
863.879	44.90572
864.06	33.6237
864.241	31.41314
864.422	36.4935
864.602	29.65432
864.783	49.6784
864.964	20.35756
865.144	22.48352
865.325	16.11735
865.506	36.55455
865.686	18.28031
865.867	31.15665
866.047	29.20239
866.228	37.4948
866.408	21.06623
866.589	25.59884
866.769	52.6319
866.95	28.82373
867.13	35.80966
867.31	30.38718
867.491	36.35917
867.671	13.73423
867.852	22.76452
868.032	38.25186
868.212	35.67533
868.393	43.79483
868.573	23.26544
868.753	18.5247
868.933	27.67552
869.113	25.07354
869.294	38.45944
869.474	56.53686
869.654	19.07457
869.834	25.78208
870.014	30.68031
870.194	-5.98671
870.374	52.44884
870.555	17.21718
870.735	31.59634
870.915	36.88426
871.095	35.04032
871.275	37.06742
871.455	53.19327
871.634	12.70759
871.814	55.6949
871.994	30.96123
872.174	39.92464
872.354	60.30705
872.534	33.48936
872.714	6.21682
872.894	27.29684
873.073	33.63591
873.253	53.04683
873.433	-0.37337
873.613	6.4491
873.792	25.08576
873.972	35.51658
874.152	14.87082
874.331	43.08676
874.511	52.3268
874.691	24.05955
874.87	19.12345
875.05	28.35957
875.229	17.4127
875.409	24.19394
875.588	19.40449
875.768	41.38976
875.947	48.44564
876.127	57.74484
876.306	18.91572
876.486	26.79601
876.665	27.88318
876.844	40.54733
877.024	61.05126
877.203	42.89143
877.382	16.8017
877.562	20.10097
877.741	18.34141
877.92	42.97688
878.1	35.90735
878.279	14.35753
878.458	14.47974
878.637	32.25586
878.816	37.95881
878.996	36.92089
879.175	33.63591
879.354	13.61201
879.533	40.10778
879.712	25.4889
879.891	38.16639
880.07	58.50133
880.249	34.02671
880.428	37.05521
880.607	49.19018
880.786	12.42647
880.965	55.52407
881.144	51.86304
881.323	12.09647
881.502	28.27406
881.68	33.36724
881.859	20.17428
882.038	33.83131
882.217	32.91536
882.396	-2.23212
882.574	14.25976
882.753	24.47492
882.932	36.23706
883.111	40.31535
883.289	34.5152
883.468	25.51333
883.647	23.61974
883.825	36.7133
884.004	41.18221
884.182	21.1762
884.361	27.51672
884.539	18.62246
884.718	54.87732
884.896	10.00635
885.075	23.17992
885.253	38.52049
885.432	36.16379
885.61	16.87502
885.789	22.66678
885.967	21.67714
886.145	47.27386
886.324	22.14142
886.502	23.08218
886.68	35.82187
886.859	20.13762
887.037	41.67057
887.215	26.22186
887.393	59.3432
887.572	19.7955
887.75	36.76214
887.928	43.51404
888.106	43.85587
888.284	59.26999
888.462	33.28175
888.64	22.09255
888.819	20.82186
888.997	33.70919
889.175	15.75073
889.353	11.88869
889.531	27.13804
889.709	16.70393
889.887	22.15364
890.065	54.52344
890.242	45.24753
890.42	58.56233
890.598	14.74861
890.776	53.41294
890.954	-0.28777
891.132	26.85708
891.309	3.79613
891.487	39.0089
891.665	28.99474
891.843	35.47995
892.02	15.38411
892.198	36.176
892.376	38.5327
892.553	43.06234
892.731	50.99653
892.909	47.43254
893.086	53.90107
893.264	35.91956
893.441	25.84317
893.619	21.75045
893.797	20.87074
893.974	23.99847
894.151	19.40449
894.329	15.48187
894.506	12.35314
894.684	26.13635
894.861	29.10467
895.039	28.72602
895.216	35.32119
895.393	42.64726
895.571	4.93315
895.748	28.33514
895.925	62.47863
896.102	48.48226
896.28	17.99926
896.457	10.27526
896.634	13.42868
896.811	8.02608
896.988	17.68154
897.166	24.20615
897.343	6.38797
897.52	58.45252
897.697	12.7687
897.874	51.10637
898.051	46.59029
898.228	32.81766
898.405	13.61201
898.582	14.79749
898.759	14.17421
898.936	49.20239
899.113	42.17113
899.29	54.48683
899.467	52.11933
899.643	48.45784
899.82	44.07561
899.997	51.30164
900.174	-1.7185
900.351	56.15859
900.527	28.43286
900.704	34.94263
900.881	48.14049
901.058	14.49196
901.234	18.63467
901.411	41.20662
901.588	39.92464
901.764	39.6316
901.941	33.66034
902.117	31.40092
902.294	24.18172
902.471	54.76749
902.647	17.97482
902.824	28.27406
903	33.61149
903.176	48.29917
903.353	46.81001
903.529	31.03451
903.706	38.47165
903.882	29.03138
904.058	10.70307
904.235	13.99088
904.411	5.5811
904.587	18.63467
904.764	21.0418
904.94	13.40424
905.116	11.91313
905.292	33.01307
905.469	32.32914
905.645	29.25125
905.821	42.12229
905.997	24.85364
906.173	5.55665
906.349	17.27828
906.525	24.37719
906.702	25.36673
906.878	23.33874
907.054	28.61608
907.23	38.42281
907.406	17.68154
907.582	55.6705
907.757	24.49936
907.933	25.78208
908.109	36.0661
908.285	22.23916
908.461	42.90363
908.637	-4.47013
908.813	19.35561
908.988	34.95484
909.164	43.09897
909.34	36.98194
909.516	23.0944
909.691	17.92594
909.867	52.09492
910.043	30.7536
910.219	44.52729
910.394	51.08196
910.57	50.74023
910.745	58.11089
910.921	49.17798
911.097	13.20869
911.272	4.27295
911.448	41.48743
911.623	5.4344
911.799	-1.40056
911.974	20.73634
912.149	17.46158
912.325	25.39117
912.5	22.52017
912.676	26.06305
912.851	12.48759
913.026	52.08272
913.202	13.29424
913.377	24.18172
913.552	-4.56798
913.727	68.26054
913.903	31.48642
914.078	15.5552
914.253	35.32119
914.428	33.2329
914.603	-11.16086
914.779	7.5371
914.954	26.61277
915.129	38.70364
915.304	28.33514
915.479	38.37396
915.654	28.82373
915.829	39.08216
916.004	-4.88596
916.179	52.42443
916.354	11.59535
916.529	45.38181
916.704	21.15176
916.879	39.39962
917.053	42.52517
917.228	18.28031
917.403	30.19175
917.578	55.80472
917.753	26.12414
917.927	24.14507
918.102	18.36585
918.277	14.83416
918.452	31.21772
918.626	28.56722
918.801	48.83622
918.976	18.20699
919.15	24.97581
919.325	42.20775
919.499	21.6527
919.674	41.40197
919.849	27.419
920.023	48.86063
920.198	24.93916
920.372	15.76295
920.547	42.14671
920.721	20.57749
920.895	28.76266
921.07	17.08276
921.244	27.93204
921.419	52.91259
921.593	16.88724
921.767	33.15962
921.942	25.7943
922.116	5.64223
922.29	20.7119
922.464	13.81978
922.639	-3.12486
922.813	11.76646
922.987	33.55043
923.161	9.34628
923.335	15.29856
923.509	46.29733
923.683	30.47267
923.858	39.76591
924.032	54.65767
924.206	36.50571
924.38	-2.78243
924.554	18.62246
924.728	12.21869
924.902	63.28378
925.075	19.49002
925.249	25.52554
925.423	43.50184
925.597	34.78387
925.771	11.92536
925.945	31.38871
926.119	72.35836
926.292	44.96676
926.466	41.87812
926.64	49.28782
926.814	37.90997
926.987	7.40263
927.161	15.31078
927.335	0.38477
927.508	50.37408
927.682	-11.98049
927.856	9.34628
928.029	46.81001
928.203	46.04099
928.376	36.96973
928.55	5.12876
928.723	9.50518
928.897	28.21299
929.07	28.92145
929.244	39.33857
929.417	-0.71576
929.59	20.14984
929.764	23.04553
929.937	41.10895
930.111	48.23814
930.284	5.0065
930.457	13.17202
930.63	12.69536
930.804	32.70774
930.977	26.52726
931.15	38.42281
931.323	58.39152
931.497	17.8404
931.67	8.34391
931.843	40.1322
932.016	-3.186
932.189	29.54439
932.362	33.26953
932.535	48.95828
932.708	24.86586
932.881	26.44175
933.054	36.0661
933.227	39.42404
933.4	1.70535
933.573	28.20077
933.746	15.21301
933.919	24.98802
934.092	4.99427
934.264	31.88946
934.437	15.29856
934.61	12.6587
934.783	12.59759
934.956	19.46558
935.128	35.15023
935.301	50.9355
935.474	11.08199
935.646	8.80843
935.819	17.37604
935.992	33.28175
936.164	4.26072
936.337	30.7536
936.51	14.22309
936.682	20.21094
936.855	10.73974
937.027	54.58445
937.2	34.6129
937.372	21.48165
937.545	28.32292
937.717	14.80972
937.889	17.19274
938.062	49.75163
938.234	31.91389
938.406	22.64235
938.579	29.92304
938.751	50.56936
938.923	21.75045
939.096	53.86446
939.268	24.65818
939.44	35.96841
939.612	28.24963
939.784	43.97795
939.957	33.39166
940.129	41.56069
940.301	35.10138
940.473	31.25436
940.645	45.05221
940.817	45.04001
940.989	9.49296
941.161	18.34141
941.333	31.85282
941.505	24.01068
941.677	24.18172
941.849	-0.37337
942.021	17.2905
942.193	7.76937
942.365	-5.37518
942.537	40.08336
942.708	30.36275
942.88	31.07115
943.052	11.97425
943.224	17.86484
943.395	26.93038
943.567	20.58971
943.739	33.78246
943.911	12.49981
944.082	29.33675
944.254	64.91841
944.425	-3.07594
944.597	20.85852
944.769	25.63549
944.94	29.14132
945.112	47.23724
945.283	54.29158
945.455	8.33169
945.626	46.32175
945.798	24.95137
945.969	28.05419
946.14	31.18108
946.312	32.13373
946.483	26.42953
946.655	27.1014
946.826	27.35792
946.997	54.95054
947.168	6.47355
947.34	18.19477
947.511	48.70196
947.682	33.99008
947.853	-2.9781
948.025	53.38853
948.196	14.16198
948.367	30.09404
948.538	10.05524
948.709	47.43254
948.88	17.7182
949.051	38.67922
949.222	14.38197
949.393	36.95752
949.564	23.86408
949.735	12.46314
949.906	15.92182
950.077	16.985
950.248	26.30737
950.419	23.83965
950.59	3.39266
950.761	9.43184
950.931	29.70318
951.102	35.94399
951.273	20.62637
951.444	39.93685
951.614	43.63612
951.785	26.35624
951.956	11.8398
952.126	51.70439
952.297	76.8945
952.468	16.91168
952.638	0.78829
952.809	21.40834
952.98	15.70185
953.15	28.6283
953.321	7.57378
953.491	14.69972
953.662	20.77299
953.832	24.53601
954.002	16.04403
954.173	-3.68742
954.343	33.35502
954.514	5.14098
954.684	6.99922
954.854	26.74714
955.025	14.36975
955.195	27.5778
955.365	33.11077
955.535	10.62974
955.706	39.98569
955.876	26.41732
956.046	40.29093
956.216	41.89032
956.386	28.65273
956.557	38.16639
956.727	-3.29607
956.897	28.23742
957.067	18.5247
957.237	28.15191
957.407	34.56405
957.577	29.98411
957.747	9.41962
957.917	23.05774
958.087	6.38797
958.257	38.32512
958.427	22.32469
958.596	1.49748
958.766	27.1014
958.936	3.23371
959.106	39.81475
959.276	16.30066
959.445	-6.62272
959.615	35.32119
959.785	28.72602
959.955	60.20945
960.124	16.3862
960.294	34.64954
960.464	11.43645
960.633	13.25758
960.803	13.99088
960.972	33.03749
961.142	6.86475
961.311	22.20251
961.481	27.28463
961.65	29.3001
961.82	24.07177
961.989	64.88181
962.159	15.49409
962.328	54.90173
962.498	45.50388
962.667	8.69841
962.836	18.13367
963.006	36.84762
963.175	17.8404
963.344	30.94902
963.513	7.32929
963.683	1.30185
963.852	-2.95364
964.021	27.33349
964.19	19.57555
964.359	20.35756
964.528	16.76504
964.698	-4.65359
964.867	16.39842
965.036	39.33857
965.205	45.56492
965.374	37.20174
965.543	36.84762
965.712	34.23432
965.881	17.03388
966.05	26.97924
966.219	30.21618
966.387	40.31535
966.556	44.62495
966.725	22.04368
966.894	37.40933
967.063	27.60223
967.232	26.20965
967.4	10.76419
967.569	13.34313
967.738	60.94146
967.906	-2.8925
968.075	56.52466
968.244	-6.64718
968.412	12.92758
968.581	32.42684
968.75	20.73634
968.918	11.26533
969.087	17.9626
969.255	29.03138
969.424	34.29538
969.592	33.01307
969.761	31.97495
969.929	21.22507
970.098	27.96869
970.266	-7.1242
970.434	16.66727
970.603	32.1093
970.771	31.60855
970.939	33.40387
971.108	54.54784
971.276	3.3193
971.444	38.42281
971.612	-16.88663
971.781	14.22309
971.949	73.90707
972.117	34.36866
972.285	39.88801
972.453	15.323
972.621	1.68089
972.789	25.4156
972.957	34.57626
973.125	13.3798
973.293	25.13462
973.461	40.26651
973.629	48.06726
973.797	20.89517
973.965	33.50158
974.133	18.39028
974.301	12.95203
974.469	10.75197
974.637	28.50615
974.805	52.6441
974.972	14.80972
975.14	45.24753
975.308	22.85005
975.476	17.1683
975.643	33.99008
975.811	16.34954
975.979	55.81693
976.146	29.8009
976.314	44.61274
976.482	32.84209
976.649	6.15569
976.817	25.74544
976.984	25.58663
977.152	20.30869
977.319	46.44381
977.487	53.44955
977.654	32.30471
977.822	-0.71576
977.989	21.42056
978.156	23.76634
978.324	24.95137
978.491	13.00092
978.658	-0.14103
978.826	42.09787
978.993	30.4971
979.16	22.32469
979.328	12.34092
979.495	33.73361
979.662	0.55596
979.829	17.69376
979.996	47.28606
980.163	54.8041
980.33	12.29203
980.498	26.57612
980.665	40.76709
980.832	4.70086
980.999	24.89029
981.166	22.27582
981.333	42.0002
981.5	41.38976
981.667	77.71141
981.833	-0.55679
982	37.36048
982.167	3.95507
982.334	7.86717
982.501	26.29516
982.668	35.44331
982.834	8.91844
983.001	35.57764
983.168	56.2196
983.335	18.12145
983.501	22.49574
983.668	19.95434
983.835	16.88724
984.001	19.64887
984.168	16.53285
984.334	28.33514
984.501	13.25758
984.668	6.85252
984.834	11.05754
985.001	-5.71764
985.167	46.89546
985.334	14.02755
985.5	10.3975
985.666	-4.26222
985.833	11.25311
985.999	22.33691
986.165	20.3209
986.332	40.76709
986.498	32.13373
986.664	14.0031
986.831	33.20847
986.997	12.64647
987.163	8.69841
987.329	9.3585
987.495	0.95948
987.662	41.09674
987.828	14.19865
987.994	32.01159
988.16	44.6982
988.326	10.60529
988.492	15.89738
988.658	36.9331
988.824	34.23432
988.99	5.80116
989.156	8.03831
989.322	59.88003
989.488	33.83131
989.654	20.66302
989.82	19.25786
989.985	41.69498
990.151	43.1478
990.317	56.26841
990.483	13.06203
990.648	29.27568
990.814	29.17796
990.98	19.56334
991.146	39.68044
991.311	31.98717
991.477	37.36048
991.643	7.45153
991.808	10.11636
991.974	-10.02319
992.139	18.42694
992.305	20.74855
992.47	25.22014
992.636	33.59928
992.801	43.92911
992.967	28.49393
993.132	22.85005
993.298	70.91931
993.463	25.07354
993.628	21.35947
993.794	18.51248
993.959	42.63505
994.124	2.15775
994.29	28.66494
994.455	38.37396
994.62	19.66109
994.785	49.48311
994.95	8.185
995.116	43.08676
995.281	26.75936
995.446	34.93041
995.611	-4.31114
995.776	16.59395
995.941	28.18856
996.106	19.84437
996.271	20.21094
996.436	34.57626
996.601	38.05649
996.766	18.20699
996.931	39.0089
997.096	23.22879
997.261	5.22656
997.425	49.28782
997.59	23.76634
997.755	18.48804
997.92	14.43086
998.085	18.20699
998.249	16.71615
998.414	-3.08817
998.579	-14.07252
998.744	15.8485
998.908	28.73823
999.073	50.9111
999.237	31.04673
999.402	17.1683
999.567	25.269
999.731	30.04518
999.896	3.89394
1000.06	44.28314
1000.225	22.66678
1000.389	16.3251
1000.553	34.83272
1000.718	40.01011
1000.882	-15.16142
1001.047	21.66492
1001.211	14.79749
1001.375	56.30502
1001.54	8.30724
1001.704	13.75867
1001.868	45.38181
1002.032	61.83206
1002.197	23.21657
1002.361	17.2905
1002.525	24.1695
1002.689	20.01544
1002.853	4.63973
1003.017	10.5564
1003.181	5.17766
1003.345	30.44825
1003.509	34.1122
1003.673	37.05521
1003.837	43.57508
1004.001	25.73322
1004.165	18.0237
1004.329	46.0532
1004.493	18.53692
1004.657	40.85256
1004.821	6.99922
1004.985	35.2235
1005.149	22.75231
1005.312	30.09404
1005.476	18.54914
1005.64	77.95526
1005.804	9.49296
1005.967	44.83248
1006.131	47.73769
1006.295	33.19626
1006.458	29.8009
1006.622	27.46786
1006.785	23.76634
1006.949	63.80834
1007.113	33.8191
1007.276	26.07527
1007.44	38.60596
1007.603	13.28202
1007.767	21.48165
1007.93	18.57358
1008.093	11.82758
1008.257	30.5826
1008.42	-5.06942
1008.584	29.95968
1008.747	10.33638
1008.91	36.90868
1009.073	2.85469
1009.237	36.66446
1009.4	26.4784
1009.563	-7.589
1009.726	8.8451
1009.889	61.08786
1010.053	32.61004
1010.216	23.5953
1010.379	43.2943
1010.542	62.89341
1010.705	33.7214
1010.868	34.34423
1011.031	25.35452
1011.194	28.78709
1011.357	19.34339
1011.52	11.42423
1011.683	13.12314
1011.846	37.4948
1012.009	34.80829
1012.171	26.95481
1012.334	23.70526
1012.497	40.37639
1012.66	6.4002
1012.823	24.70704
1012.985	44.62495
1013.148	33.4283
1013.311	14.96859
1013.473	32.25586
1013.636	5.70336
1013.799	46.34616
1013.961	39.47288
1014.124	34.85714
1014.286	27.43121
1014.449	13.06203
1014.612	38.5327
1014.774	17.6571
1014.936	21.99481
1015.099	11.4609
1015.261	5.49552
1015.424	29.14132
1015.586	32.59783
1015.748	34.64954
1015.911	-3.47951
1016.073	93.70331
1016.235	30.55817
1016.398	40.44965
1016.56	44.17327
1016.722	3.94284
1016.884	-0.33668
1017.047	32.89094
1017.209	17.95038
1017.371	2.02326
1017.533	-2.15875
1017.695	53.69362
1017.857	42.76934
1018.019	49.31224
1018.181	32.42684
1018.343	31.95053
1018.505	22.32469
1018.667	-4.95934
1018.829	16.3251
1018.991	39.72928
1019.153	31.07115
1019.315	-0.15326
1019.477	24.54822
1019.638	21.66492
1019.8	11.39978
1019.962	28.60387
1020.124	15.77517
1020.285	21.55496
1020.447	28.11527
1020.609	27.66331
1020.77	2.09662
1020.932	74.15095
1021.094	6.31462
1021.255	11.44867
1021.417	42.54959
1021.578	19.56334
1021.74	15.24967
1021.901	29.91082
1022.063	12.67092
1022.224	36.45686
1022.386	25.46446
1022.547	31.63298
1022.709	27.55337
1022.87	48.23814
1023.031	22.65457
1023.193	19.56334
1023.354	28.61608
1023.515	43.58729
1023.676	37.27501
1023.838	16.23956
1023.999	20.66302
1024.16	36.55455
1024.321	22.25138
1024.482	34.97926
1024.644	51.91186
1024.805	36.84762
1024.966	11.80313
1025.127	10.36083
1025.288	16.43508
1025.449	55.47525
1025.61	17.88928
1025.771	44.56391
1025.932	43.96574
1026.093	55.13358
1026.253	24.0962
1026.414	-8.0538
1026.575	5.55665
1026.736	8.34391
1026.897	21.33503
1027.058	35.16244
1027.218	26.74714
1027.379	-2.0976
1027.54	30.54596
1027.7	32.81766
1027.861	38.82574
1028.022	34.31981
1028.182	8.58839
1028.343	33.66034
1028.504	18.83019
1028.664	31.33985
1028.825	35.93178
1028.985	28.31071
1029.146	8.16055
1029.306	13.22091
1029.466	45.0278
1029.627	54.30378
1029.787	10.3975
1029.948	28.55501
1030.108	16.49619
1030.268	48.20152
1030.429	6.00899
1030.589	26.38067
1030.749	12.09647
1030.909	31.97495
1031.07	30.16732
1031.23	28.40843
1031.39	5.51998
1031.55	26.53948
1031.71	-1.05815
1031.87	19.86881
1032.03	36.9331
1032.19	22.43465
1032.35	15.13969
1032.51	38.03207
1032.67	0.38477
1032.83	28.54279
1032.99	12.92758
1033.15	37.32385
1033.31	19.08679
1033.47	5.44662
1033.63	35.88293
1033.79	21.97037
1033.949	19.35561
1034.109	29.51997
1034.269	10.70307
1034.429	63.79614
1034.588	29.91082
1034.748	33.94123
1034.908	23.63196
1035.067	20.82186
1035.227	11.58312
1035.387	30.10625
1035.546	39.33857
1035.706	9.93301
1035.865	34.7106
1036.025	18.08479
1036.184	15.18857
1036.344	37.10405
1036.503	26.03862
1036.662	14.44308
1036.822	37.1529
1036.981	22.03146
1037.14	22.4713
1037.3	17.40048
1037.459	18.83019
1037.618	43.84366
1037.778	32.93979
1037.937	29.99632
1038.096	31.40092
1038.255	28.15191
1038.414	7.04812
1038.573	44.11223
1038.733	21.46943
1038.892	37.84891
1039.051	37.43375
1039.21	53.26649
1039.369	-1.52284
1039.528	45.25974
1039.687	29.59325
1039.846	32.53676
1040.005	11.93758
1040.164	39.77812
1040.322	6.58357
1040.481	29.92304
1040.64	7.69602
1040.799	6.03344
1040.958	40.29093
1041.116	28.60387
1041.275	4.05288
1041.434	34.52742
1041.593	-3.98093
1041.751	24.67039
1041.91	38.97227
1042.069	11.19199
1042.227	17.33938
1042.386	49.239
1042.544	13.28202
1042.703	30.60703
1042.861	23.39983
1043.02	15.44521
1043.178	32.73217
1043.337	57.52521
1043.495	23.11883
1043.653	18.37807
1043.812	14.87082
1043.97	24.64596
1044.129	9.1507
1044.287	31.48642
1044.445	32.20701
1044.603	14.23531
1044.762	2.57347
1044.92	53.3031
1045.078	22.10477
1045.236	18.63467
1045.394	14.79749
1045.552	56.61007
