Data from deut_100ms_40_SR4014911__0__16-35-16-137.txt Node

Date: Sun Jul 13 16:35:16 EDT 2025
User: cryst
Spectrometer: SR401491
Trigger mode: 0
Integration Time (sec): 1.000000E-1
Scans to average: 40
Electric dark correction enabled: true
Nonlinearity correction enabled: true
Boxcar width: 0
XAxis mode: Wavelengths
Number of Pixels in Spectrum: 3648
>>>>>Begin Spectral Data<<<<<
344.912	-175.11476
345.129	-171.82776
345.347	-163.25617
345.565	-165.69316
345.783	79.17537
346.001	38.39989
346.219	30.9548
346.437	47.90703
346.654	102.57583
346.872	36.33504
347.09	-26.09393
347.308	112.11462
347.526	63.08431
347.743	20.97946
347.961	166.97972
348.179	62.05285
348.397	88.6139
348.614	120.37709
348.832	160.11062
349.05	167.52052
349.268	164.08625
349.485	192.35907
349.703	131.88621
349.921	194.73636
350.138	178.01
350.356	169.49436
350.574	105.39445
350.791	159.56968
351.009	165.5195
351.227	157.05414
351.444	125.73958
351.662	163.19381
351.879	115.93463
352.097	164.24851
352.314	144.98722
352.532	167.52052
352.75	192.35907
352.967	188.4415
353.185	199.57137
353.402	136.81335
353.62	127.7164
353.837	196.84334
354.055	174.17152
354.272	204.99964
354.49	237.2237
354.707	236.73819
354.925	128.31213
355.142	169.5214
355.359	206.32279
355.577	200.35462
355.794	182.06415
356.012	239.24661
356.229	192.76431
356.446	146.61088
356.664	180.52364
356.881	214.23339
357.099	171.38695
357.316	172.38726
357.533	193.62879
357.751	148.50503
357.968	308.72111
358.185	213.6395
358.402	176.4152
358.62	236.79213
358.837	217.01373
359.054	153.3751
359.272	148.47797
359.489	154.91711
359.706	189.92754
359.923	229.94006
360.141	179.22631
360.358	217.7695
360.575	191.06228
360.792	184.06399
361.009	176.82067
361.226	168.3317
361.444	256.52987
361.661	216.47388
361.878	171.30584
362.095	172.79279
362.312	232.28721
362.529	235.14671
362.746	204.7026
362.963	146.09673
363.181	152.64464
363.398	175.41503
363.615	276.06548
363.832	142.60568
364.049	144.52716
364.266	270.46214
364.483	204.24352
364.7	169.92696
364.917	109.9741
365.134	211.34479
365.351	176.4963
365.568	209.99488
365.785	162.46361
366.002	136.65093
366.219	157.70333
366.436	207.07885
366.652	249.95214
366.869	188.84679
367.086	214.55733
367.303	126.82279
367.52	149.69557
367.737	234.6072
367.954	224.73245
368.171	169.68362
368.387	307.61793
368.604	192.54818
368.821	203.19033
369.038	165.24908
369.255	215.12421
369.471	134.18746
369.688	248.46924
369.905	240.37937
370.122	200.46265
370.339	193.57476
370.555	164.00512
370.772	148.61326
370.989	304.38888
371.205	192.4131
371.422	194.89844
371.639	156.89184
371.855	273.74885
372.072	185.71239
372.289	144.66247
372.505	254.72384
372.722	151.61656
372.939	195.08754
373.155	256.85333
373.372	163.35608
373.589	203.56841
373.805	181.22634
374.022	156.24263
374.238	166.43891
374.455	197.54563
374.671	235.76712
374.888	206.21478
375.104	126.49783
375.321	132.3194
375.537	167.79092
375.754	211.93874
375.97	189.87351
376.187	281.34456
376.403	166.95268
376.62	192.49415
376.836	179.84796
377.053	188.4415
377.269	188.76574
377.486	144.77072
377.702	126.47075
377.918	132.56307
378.135	180.06418
378.351	229.7512
378.568	196.7353
378.784	195.6278
379	186.7122
379.217	173.54975
379.433	146.58382
379.649	246.63574
379.865	167.41236
380.082	240.64907
380.298	130.85736
380.514	257.20373
380.731	181.7939
380.947	136.43437
381.163	201.38091
381.379	181.3885
381.596	191.87278
381.812	245.39536
382.028	205.59371
382.244	184.11804
382.46	163.32903
382.676	259.25218
382.893	208.6989
383.109	184.71255
383.325	175.19877
383.541	226.5134
383.757	117.12658
383.973	203.56841
384.189	254.7508
384.405	198.19388
384.622	209.58989
384.838	220.41454
385.054	213.09959
385.27	241.64694
385.486	172.14395
385.702	144.12123
385.918	207.96989
386.134	191.33245
386.35	219.01108
386.566	231.63974
386.782	236.38753
386.998	247.12109
387.214	190.60299
387.43	185.55026
387.646	268.14505
387.861	233.44723
388.077	220.11766
388.293	216.25794
388.509	246.71663
388.725	211.69576
388.941	241.99753
389.157	165.89808
389.373	197.89677
389.588	237.54738
389.804	209.0229
390.02	299.24856
390.236	156.75659
390.452	171.30584
390.668	189.11699
390.883	281.77547
391.099	219.68583
391.315	237.35857
391.531	190.22474
391.746	194.68234
391.962	218.28233
392.178	221.54806
392.393	192.00786
392.609	295.56097
392.825	231.01923
393.041	173.38754
393.256	236.98095
393.472	253.78035
393.687	236.00989
393.903	266.20502
394.119	221.84492
394.334	213.26156
394.55	297.57978
394.766	215.50212
394.981	280.5366
395.197	261.70473
395.412	312.40703
395.628	257.50023
395.843	319.40094
396.059	398.93423
396.274	272.10554
396.49	335.91072
396.705	258.9018
396.921	168.52098
397.136	256.82637
397.352	228.69895
397.567	197.43759
397.783	225.19119
397.998	242.56386
398.214	227.26892
398.429	180.25337
398.644	326.50074
398.86	220.79239
399.075	260.16854
399.29	217.01373
399.506	166.8986
399.721	220.7654
399.936	237.76316
400.152	198.00481
400.367	221.2242
400.582	234.90393
400.798	272.59046
401.013	186.82028
401.228	242.24025
401.444	244.50549
401.659	216.25794
401.874	289.04598
402.089	235.11973
402.304	250.32959
402.52	229.77818
402.735	187.44176
402.95	179.65876
403.165	258.47055
403.38	308.74801
403.596	225.0023
403.811	264.96549
404.026	306.40708
404.241	218.90312
404.456	217.36462
404.671	298.71026
404.886	253.24119
405.101	185.55026
405.316	245.31447
405.532	288.26516
405.747	254.15775
405.962	290.90371
406.177	258.87484
406.392	204.05449
406.607	289.26138
406.822	271.53979
407.037	280.6982
407.252	366.02934
407.467	324.99487
407.682	336.44834
407.896	369.76182
408.111	370.03032
408.326	389.16853
408.541	494.1997
408.756	526.96708
408.971	563.64957
409.186	589.33417
409.401	495.29606
409.616	290.60756
409.83	225.56897
410.045	213.34255
410.26	177.1991
410.475	190.87316
410.69	222.89742
410.905	238.54535
411.119	176.22598
411.334	206.18778
411.549	197.76172
411.764	247.25591
411.978	273.69497
412.193	236.44148
412.408	218.3903
412.623	176.82067
412.837	316.54978
413.052	239.24661
413.267	257.44632
413.481	229.64327
413.696	198.89614
413.911	206.86283
414.125	202.11009
414.34	184.4153
414.554	191.35947
414.769	236.25266
414.984	216.09598
415.198	157.73038
415.413	171.46805
415.627	236.63029
415.842	213.80147
416.056	248.7119
416.271	193.33162
416.485	244.55943
416.7	244.50549
416.914	219.46991
417.129	190.79211
417.343	220.41454
417.558	230.39871
417.772	272.2133
417.987	236.00989
418.201	198.13986
418.415	172.25209
418.63	251.30016
418.844	216.06898
419.059	272.50964
419.273	219.90175
419.487	298.38727
419.702	235.55133
419.916	320.63815
420.13	218.12039
420.345	201.51595
420.559	202.38016
420.773	222.65454
420.988	216.41989
421.202	289.63832
421.416	220.95432
421.63	226.99909
421.845	222.35768
422.059	220.0367
422.273	181.44255
422.487	233.8249
422.701	283.01428
422.916	295.4533
423.13	216.66283
423.344	195.41169
423.558	173.54975
423.772	194.14206
423.986	231.10017
424.201	200.38163
424.415	293.16513
424.629	264.93855
424.843	224.75944
425.057	269.86941
425.271	177.63158
425.485	171.14362
425.699	183.11814
425.913	268.92642
426.127	251.59671
426.341	218.41729
426.555	219.38894
426.769	254.9934
426.983	280.18648
427.197	249.25114
427.411	240.67604
427.625	292.54595
427.839	202.70423
428.053	217.36462
428.267	194.43921
428.481	265.45053
428.695	189.44121
428.908	152.83402
429.122	224.16576
429.336	238.41049
429.55	224.16576
429.764	263.99539
429.978	357.83774
430.191	359.15392
430.405	480.85302
430.619	463.91398
430.833	642.7981
431.047	819.3866
431.26	1134.35061
431.474	1382.0843
431.688	1542.41723
431.901	1666.44444
432.115	1997.75266
432.329	2269.3446
432.543	2488.17331
432.756	2976.34998
432.97	3065.56442
433.184	2114.99514
433.397	894.3196
433.611	324.51082
433.824	316.71118
434.038	262.40542
434.252	223.54509
434.465	229.42743
434.679	202.51519
434.892	254.53514
435.106	158.19022
435.319	183.55053
435.533	298.06428
435.747	257.31155
435.96	161.24658
436.174	289.90755
436.387	274.36843
436.601	277.38534
436.814	299.03324
437.027	178.30732
437.241	276.9005
437.454	189.46823
437.668	262.18983
437.881	282.5026
438.095	199.40932
438.308	250.65311
438.521	343.30216
438.735	235.03881
438.948	245.93466
439.161	240.19058
439.375	232.39512
439.588	244.90998
439.801	271.32426
440.015	254.13079
440.228	287.51125
440.441	309.93186
440.654	365.38484
440.868	313.83285
441.081	205.4587
441.294	278.75901
441.507	272.69822
441.721	209.2389
441.934	289.85371
442.147	227.10702
442.36	226.29753
442.573	260.03378
442.786	186.92837
443	277.25067
443.213	231.9365
443.426	274.988
443.639	312.62225
443.852	274.50312
444.065	303.04333
444.278	250.51831
444.491	296.18009
444.704	244.4246
444.917	274.23374
445.13	292.84208
445.343	220.49551
445.556	351.95451
445.769	361.32952
445.982	292.62672
446.195	328.97451
446.408	286.11107
446.621	337.06659
446.834	269.95024
447.047	270.30049
447.26	247.41769
447.473	272.64434
447.686	287.80743
447.899	276.92744
448.111	303.60847
448.324	286.75731
448.537	272.50964
448.75	238.05986
448.963	255.23601
449.176	329.6467
449.388	323.00484
449.601	282.63725
449.814	252.80986
450.027	257.52718
450.239	288.64211
450.452	274.17986
450.665	237.08884
450.878	264.66907
451.09	279.16302
451.303	269.14196
451.516	237.38554
451.728	293.75738
451.941	195.41169
452.154	314.29017
452.366	315.9042
452.579	222.78947
452.792	326.01672
453.004	290.12294
453.217	257.76977
453.429	274.71862
453.642	248.63102
453.854	315.04339
454.067	356.03797
454.28	368.92944
454.492	195.51975
454.705	222.3307
454.917	245.69198
455.13	338.38369
455.342	305.59981
455.555	228.0514
455.767	352.73364
455.979	282.44874
456.192	324.5915
456.404	230.88434
456.617	286.32648
456.829	246.63574
457.041	305.46527
457.254	291.81907
457.466	248.7119
457.679	248.0648
457.891	322.44008
458.103	308.12916
458.315	284.09146
458.528	215.77206
458.74	266.74393
458.952	283.47208
459.165	264.21097
459.377	207.37586
459.589	188.5766
459.801	264.72297
460.014	281.07525
460.226	261.65083
460.438	276.68502
460.65	219.01108
460.862	279.67475
461.075	275.82305
461.287	245.04481
461.499	178.01
461.711	179.19928
461.923	225.75786
462.135	272.50964
462.347	244.99088
462.559	256.20641
462.771	273.31783
462.983	243.91223
463.196	273.64109
463.408	311.81516
463.62	244.23583
463.832	327.73766
464.044	291.95368
464.256	282.87963
464.468	235.30856
464.68	296.39543
464.891	279.21689
465.103	216.87877
465.315	311.62684
465.527	220.84636
465.739	207.80788
465.951	234.52627
466.163	242.21328
466.375	202.24513
466.587	294.1881
466.799	214.12541
467.01	226.16261
467.222	251.89326
467.434	185.92857
467.646	202.89327
467.858	256.88028
468.069	237.76316
468.281	185.82048
468.493	175.388
468.705	202.81225
468.916	225.24516
469.128	184.03696
469.34	203.67643
469.551	213.85546
469.763	134.45818
469.975	209.2929
470.186	218.66021
470.398	191.81875
470.61	189.90052
470.821	156.16148
471.033	210.34586
471.245	271.40509
471.456	171.79248
471.668	237.73619
471.879	175.57722
472.091	253.996
472.302	278.48967
472.514	255.47861
472.725	232.74583
472.937	189.73841
473.148	192.27802
473.36	241.26937
473.571	253.86122
473.783	217.17568
473.994	233.47421
474.206	211.18281
474.417	212.77563
474.629	228.10536
474.84	266.09724
475.051	286.32648
475.263	171.44102
475.474	218.74118
475.685	240.43331
475.897	210.10288
476.108	292.70748
476.319	196.35713
476.531	203.64942
476.742	260.33025
476.953	280.32114
477.165	337.22787
477.376	221.54806
477.587	226.91814
477.798	245.12571
478.01	177.25316
478.221	259.11742
478.432	235.11973
478.643	232.93467
478.854	201.3269
479.065	354.29183
479.277	287.91513
479.488	253.26815
479.699	308.96326
479.91	253.4299
480.121	307.69865
480.332	273.66803
480.543	275.01494
480.754	202.97429
480.965	241.40422
481.176	269.76164
481.387	346.1776
481.598	273.5064
481.809	334.32467
482.02	513.12665
482.231	1057.00904
482.442	2426.98083
482.653	4776.05395
482.864	7492.26304
483.075	11405.13369
483.286	15924.19131
483.497	21224.97188
483.708	25282.38099
483.919	28888.17999
484.13	32107.26229
484.341	36722.81575
484.551	43000.28068
484.762	48681.9552
484.973	50494.70522
485.184	34662.21437
485.395	11598.08244
485.605	3542.92975
485.816	1534.06947
486.027	742.75329
486.238	532.87012
486.449	547.63625
486.659	462.36144
486.87	387.04863
487.081	396.97598
487.291	364.90146
487.502	331.36742
487.713	289.98832
487.923	321.84842
488.134	269.38445
488.345	404.24502
488.555	348.16606
488.766	252.18981
488.976	340.82959
489.187	314.77439
489.398	320.39609
489.608	344.56524
489.819	265.26191
490.029	266.85171
490.24	333.35688
490.45	357.67658
490.661	341.66276
490.871	293.08437
491.082	236.19871
491.292	254.88558
491.503	310.81972
491.713	332.17397
491.924	314.34397
492.134	270.05801
492.344	295.13027
492.555	310.95424
492.765	327.54943
492.975	325.55958
493.186	336.26017
493.396	343.7859
493.607	229.53535
493.817	356.19915
494.027	286.48805
494.237	283.20279
494.448	270.46214
494.658	332.68478
494.868	249.11633
495.078	317.62572
495.289	371.45336
495.499	287.59203
495.709	235.4704
495.919	268.27977
496.129	263.02525
496.34	231.50485
496.55	215.31317
496.76	335.91072
496.97	334.16338
497.18	275.17656
497.39	257.23069
497.6	325.96294
497.81	326.63519
498.021	338.67936
498.231	343.14091
498.441	300.94416
498.651	259.49475
498.861	220.63045
499.071	292.16905
499.281	342.11965
499.491	303.33936
499.701	310.01258
499.911	298.33344
500.121	284.71082
500.331	279.56702
500.54	385.84102
500.75	281.66774
500.96	299.57154
501.17	275.49981
501.38	308.88254
501.59	306.78379
501.8	267.12116
502.01	204.32454
502.219	289.71909
502.429	331.82447
502.639	352.35751
502.849	338.54497
503.059	284.92625
503.268	272.72516
503.478	264.66907
503.688	311.76136
503.898	285.81487
504.107	281.42536
504.317	379.13122
504.527	310.22782
504.736	318.21748
504.946	293.59586
505.156	345.93575
505.365	269.65387
505.575	271.99778
505.785	291.03833
505.994	340.02327
506.204	265.23496
506.413	283.66059
506.623	217.87747
506.832	279.37849
507.042	287.40354
507.251	333.35688
507.461	289.5037
507.67	296.18009
507.88	252.64811
508.089	271.08179
508.299	284.79161
508.508	284.38768
508.718	208.8069
508.927	225.0023
509.137	343.62465
509.346	329.13584
509.555	236.65727
509.765	252.7829
509.974	498.05018
510.184	294.96876
510.393	250.14086
510.602	275.33819
510.812	342.97966
511.021	270.65073
511.23	362.96783
511.439	233.98676
511.649	258.25493
511.858	296.63769
512.067	293.67662
512.276	292.11521
512.486	558.44613
512.695	305.19617
512.904	223.89591
513.113	285.46481
513.322	288.21131
513.531	294.59189
513.741	332.79232
513.95	227.78158
514.159	292.46519
514.368	228.96876
514.577	279.45929
514.786	235.20066
514.995	248.41532
515.204	275.12269
515.413	220.49551
515.622	240.0827
515.831	266.77088
516.04	267.17505
516.249	223.89591
516.458	232.71885
516.667	290.49987
516.876	330.34575
517.085	258.74008
517.294	318.27127
517.503	281.34456
517.712	278.2742
517.921	295.88399
518.13	303.07024
518.339	304.38888
518.547	395.28588
518.756	239.86694
518.965	263.40253
519.174	276.46953
519.383	269.33056
519.591	247.49858
519.8	217.41861
520.009	267.82172
520.218	230.88434
520.426	274.12599
520.635	313.42932
520.844	272.29412
521.053	310.22782
521.261	329.61981
521.47	301.61699
521.679	255.96381
521.887	259.73732
522.096	280.24035
522.304	221.70999
522.513	229.53535
522.722	232.50303
522.93	329.86179
523.139	275.2035
523.347	221.35914
523.556	228.24027
523.764	263.96844
523.973	250.38351
524.182	213.74748
524.39	299.78686
524.598	232.93467
524.807	195.65481
525.015	270.35437
525.224	279.83635
525.432	250.59919
525.641	202.48818
525.849	249.60164
526.057	248.03784
526.266	304.9809
526.474	201.43492
526.683	225.91976
526.891	294.80725
527.099	255.12818
527.308	247.22894
527.516	214.28738
527.724	289.34215
527.932	212.9916
528.141	296.98761
528.349	358.48241
528.557	254.53514
528.765	244.61336
528.974	191.46754
529.182	235.65923
529.39	255.80208
529.598	233.0156
529.806	198.46399
530.015	284.17225
530.223	245.2875
530.431	221.2242
530.639	210.23787
530.847	205.80974
531.055	247.90303
531.263	252.08198
531.471	191.17035
531.679	168.06131
531.887	241.29634
532.095	279.27075
532.303	285.1686
532.511	250.19479
532.719	221.73697
532.927	263.32168
533.135	265.6661
533.343	329.27028
533.551	289.58447
533.759	237.84408
533.967	316.22699
534.175	258.65922
534.383	325.96294
534.591	336.26017
534.798	298.73717
535.006	220.46852
535.214	254.23862
535.422	233.06956
535.63	306.08417
535.837	201.75901
536.045	215.5831
536.253	265.82778
536.461	250.00606
536.668	252.89074
536.876	299.32931
537.084	332.76543
537.292	308.34442
537.499	325.23689
537.707	282.55646
537.915	298.73717
538.122	327.41499
538.33	318.40576
538.538	279.59395
538.745	295.4533
538.953	359.5031
539.16	313.48313
539.368	260.16854
539.575	245.2066
539.783	285.6533
539.99	336.04512
540.198	292.06137
540.406	273.12925
540.613	262.91745
540.82	235.60528
541.028	284.30689
541.235	268.33366
541.443	328.94763
541.65	372.23198
541.858	302.39745
542.065	267.60617
542.272	250.70704
542.48	393.59568
542.687	257.82367
542.895	317.03396
543.102	254.3734
543.309	312.81057
543.516	307.69865
543.724	282.42181
543.931	262.40542
544.138	319.96576
544.346	264.74992
544.553	285.08782
544.76	282.79883
544.967	266.15113
545.174	293.59586
545.382	272.72516
545.589	325.15622
545.796	327.44188
546.003	212.64065
546.21	299.94834
546.417	375.13146
546.624	283.82217
546.832	286.59575
547.039	287.72665
547.246	329.83491
547.453	272.59046
547.66	251.75847
547.867	298.11811
548.074	292.16905
548.281	259.95293
548.488	272.94068
548.695	256.3951
548.902	265.6661
549.109	253.69947
549.316	208.5369
549.523	224.00385
549.73	256.66464
549.936	276.60421
550.143	236.5224
550.35	225.56897
550.557	233.95978
550.764	234.14861
550.971	298.54876
551.178	245.85377
551.384	297.68745
551.591	300.91725
551.798	321.31053
552.005	253.67252
552.211	323.38135
552.418	271.40509
552.625	195.24962
552.832	286.56883
553.038	285.41095
553.245	293.5151
553.452	313.88665
553.658	241.29634
553.865	252.89074
554.072	282.7719
554.278	281.34456
554.485	368.55351
554.691	347.70926
554.898	260.3033
555.105	324.56461
555.311	261.83948
555.518	307.13359
555.724	312.05729
555.931	203.59541
556.137	237.38554
556.344	294.80725
556.55	276.92744
556.757	292.89593
556.963	269.65387
557.17	289.98832
557.376	297.71437
557.582	344.91459
557.789	259.14437
557.995	253.24119
558.202	267.06728
558.408	290.31141
558.614	239.89391
558.821	283.90295
559.027	314.63989
559.233	289.5037
559.439	386.48509
559.646	287.08043
559.852	344.10838
560.058	310.79282
560.264	306.94524
560.471	274.53006
560.677	344.02776
560.883	348.38102
561.089	348.13919
561.295	259.44084
561.502	294.13426
561.708	269.76164
561.914	303.31245
562.12	299.16782
562.326	319.50853
562.532	328.16787
562.738	316.30769
562.944	264.93855
563.15	285.00703
563.356	224.13878
563.562	278.73208
563.768	326.74275
563.974	223.59906
564.18	306.75688
564.386	290.36525
564.592	259.33304
564.798	269.1689
565.004	369.49331
565.21	229.96704
565.416	326.55452
565.622	315.5007
565.828	329.70047
566.034	333.62571
566.239	291.63062
566.445	368.58037
566.651	353.08289
566.857	396.97598
567.063	353.94258
567.268	405.45188
567.474	435.90261
567.68	404.3523
567.886	461.85283
568.091	469.05287
568.297	437.4297
568.503	466.61736
568.708	494.57407
568.914	505.18835
569.12	550.99971
569.325	474.08387
569.531	504.92103
569.737	388.06835
569.942	449.21522
570.148	531.0005
570.353	608.95051
570.559	588.24106
570.765	516.28003
570.97	562.79573
571.176	650.86202
571.381	484.38416
571.587	423.84392
571.792	442.97482
571.998	467.47382
572.203	467.76823
572.408	617.66211
572.614	668.71271
572.819	609.40347
573.025	565.83744
573.23	565.59731
573.435	541.52236
573.641	572.85359
573.846	489.03824
574.051	550.83956
574.257	608.764
574.462	617.55556
574.667	555.99087
574.873	534.49928
575.078	635.37115
575.283	606.97876
575.488	646.09843
575.694	735.08317
575.899	546.78197
576.104	602.82169
576.309	635.31791
576.514	659.16339
576.719	842.46798
576.925	942.56071
577.13	842.41506
577.335	748.64404
577.54	698.83221
577.745	565.49059
577.95	627.30341
578.155	568.90553
578.36	522.74613
578.565	558.25932
578.77	720.29537
578.975	804.953
579.18	636.72889
579.385	704.6775
579.59	833.81425
579.795	670.70734
580	517.42906
580.205	597.70456
580.41	840.35106
580.615	1274.19586
580.82	1361.2282
581.024	1094.63479
581.229	1045.80093
581.434	969.4656
581.639	757.87614
581.844	634.67895
582.049	583.65493
582.253	667.67545
582.458	578.72143
582.663	461.15682
582.868	472.61212
583.072	479.19431
583.277	613.29328
583.482	688.1752
583.686	719.47216
583.891	674.11124
584.096	706.93564
584.3	783.35759
584.505	650.24998
584.71	701.46272
584.914	752.01352
585.119	693.62372
585.323	658.95056
585.528	501.65957
585.733	548.00998
585.937	594.82582
586.142	459.14903
586.346	652.80452
586.551	603.03488
586.755	645.24676
586.959	827.40858
587.164	776.6775
587.368	626.10506
587.573	754.00321
587.777	1104.9091
587.982	3890.27797
588.186	8665.79906
588.39	3998.69882
588.595	2514.35316
588.799	4933.03936
589.003	2200.34747
589.208	788.49931
589.412	676.29168
589.616	590.64052
589.82	618.67431
590.025	417.73235
590.229	478.41844
590.433	466.83148
590.637	461.13005
590.842	602.18209
591.046	666.1328
591.25	531.72166
591.454	423.87072
591.658	507.16643
591.862	697.07842
592.067	1102.91226
592.271	926.0387
592.475	727.59716
592.679	788.84383
592.883	659.00377
593.087	708.21075
593.291	600.7163
593.495	528.24929
593.699	483.95617
593.903	663.5261
594.107	851.01378
594.311	844.74354
594.515	727.8361
594.719	655.67814
594.923	601.30262
595.127	663.15369
595.33	622.24342
595.534	482.24412
595.738	645.72583
595.942	611.69478
596.146	487.32647
596.35	599.75684
596.553	533.99184
596.757	583.70826
596.961	782.29734
597.165	622.05698
597.369	438.09945
597.572	504.54678
597.776	498.37103
597.98	697.21129
598.183	811.78653
598.387	693.86291
598.591	573.09366
598.794	565.73071
598.998	599.35705
599.202	660.52015
599.405	759.14934
599.609	681.90166
599.812	765.6472
600.016	736.96769
600.22	789.61237
600.423	789.16185
600.627	745.19463
600.83	587.06792
601.034	765.11681
601.237	834.76706
601.441	521.73088
601.644	596.61173
601.847	747.52966
602.051	649.55809
602.254	608.01794
602.458	726.11038
602.661	830.63803
602.864	651.26117
603.068	583.09495
603.271	547.82311
603.475	542.48357
603.678	557.56546
603.881	559.8338
604.084	449.5098
604.288	497.27477
604.491	658.92396
604.694	650.03709
604.897	462.14729
605.101	555.88412
605.304	592.79988
605.507	503.02301
605.71	449.32234
605.913	603.80771
606.116	641.60032
606.32	601.19602
606.523	529.74512
606.726	534.31233
606.929	576.64114
607.132	591.62691
607.335	610.68236
607.538	492.59519
607.741	484.57141
607.944	429.36471
608.147	409.76938
608.35	491.23129
608.553	476.97365
608.756	508.77019
608.959	533.8316
609.162	650.8088
609.365	612.09442
609.568	568.9322
609.771	421.4048
609.973	578.4014
610.176	559.56694
610.379	469.21345
610.582	437.00105
610.785	554.60303
610.988	523.62777
611.19	432.15153
611.393	443.83194
611.596	398.80011
611.799	407.73139
612.001	520.55529
612.204	425.98803
612.407	447.66193
612.609	477.02716
612.812	541.73596
613.015	502.5418
613.217	520.90262
613.42	439.9479
613.623	453.01776
613.825	537.27665
614.028	580.18823
614.23	454.32979
614.433	422.42335
614.636	469.42755
614.838	554.25607
615.041	595.30562
615.243	388.41719
615.446	352.7605
615.648	317.06086
615.85	413.25512
616.053	303.36627
616.255	436.57239
616.458	390.13451
616.66	362.96783
616.863	320.82642
617.065	378.40647
617.267	428.96274
617.47	389.57102
617.672	358.48241
617.874	356.46778
618.077	365.54597
618.279	384.52602
618.481	437.67081
618.683	310.36234
618.886	319.66991
619.088	472.87972
619.29	455.58822
619.492	319.48163
619.694	363.55867
619.897	389.19536
620.099	310.44306
620.301	242.40206
620.503	231.58578
620.705	350.26186
620.907	314.69369
621.109	281.91012
621.311	365.86822
621.513	380.52698
621.715	406.17598
621.917	415.02464
622.119	403.25267
622.321	357.32737
622.523	393.13958
622.725	310.76591
622.927	313.26791
623.129	334.56662
623.331	306.46089
623.533	278.62434
623.735	348.4885
623.937	381.17116
624.139	284.30689
624.341	369.41276
624.542	247.92999
624.744	252.7829
624.946	336.20641
625.148	291.95368
625.35	330.34575
625.551	289.85371
625.753	228.37518
625.955	279.67475
626.156	313.21411
626.358	338.2493
626.56	277.62776
626.762	385.5995
626.963	324.69906
627.165	281.18297
627.366	329.10895
627.568	329.40471
627.77	315.8235
627.971	352.51871
628.173	325.39824
628.374	267.9295
628.576	304.14668
628.777	397.21742
628.979	241.88966
629.18	238.49141
629.382	234.9309
629.583	323.40824
629.785	319.40094
629.986	232.09837
630.188	279.18995
630.389	277.52002
630.591	321.31053
630.792	228.37518
630.993	179.90201
631.195	221.06227
631.396	240.13664
631.597	235.41645
631.799	235.22763
632	316.06559
632.201	226.27055
632.402	284.0376
632.604	285.14167
632.805	242.42902
633.006	299.38314
633.207	287.29584
633.409	312.138
633.61	250.57223
633.811	244.61336
634.012	287.64588
634.213	276.38872
634.414	272.8868
634.615	257.635
634.816	338.78688
635.017	307.5103
635.219	325.18311
635.42	295.37254
635.621	260.00683
635.822	346.3657
636.023	293.86506
636.224	307.64484
636.425	285.92258
636.626	252.97161
636.826	236.19871
637.027	304.17359
637.228	251.24624
637.429	222.7355
637.63	239.83997
637.831	199.08521
638.032	221.60203
638.233	199.11222
638.433	209.61689
638.634	244.20886
638.835	244.85605
639.036	287.64588
639.237	166.95268
639.437	165.73583
639.638	236.60332
639.839	231.6937
640.039	196.95139
640.24	250.76096
640.441	217.41861
640.641	148.2615
640.842	242.32115
641.043	205.59371
641.243	171.08955
641.444	200.03052
641.645	272.15942
641.845	181.11824
642.046	211.45278
642.246	209.75189
642.447	128.23089
642.647	227.94347
642.848	277.43921
643.048	283.74138
643.249	238.00591
643.449	217.95844
643.65	171.9547
643.85	161.65226
644.05	251.43495
644.251	191.68367
644.451	200.16556
644.651	186.65815
644.852	193.00744
645.052	200.38163
645.252	202.00207
645.453	158.16317
645.653	157.78448
645.853	157.86563
646.054	172.00877
646.254	153.53742
646.454	122.97722
646.654	150.91311
646.854	179.11819
647.055	245.01785
647.255	160.08358
647.455	281.66774
647.655	186.36092
647.855	234.47232
648.055	211.77675
648.255	159.94834
648.455	227.53874
648.655	197.51862
648.856	235.4704
649.056	217.1217
649.256	228.83386
649.456	170.684
649.656	191.65665
649.856	216.31192
650.055	194.16907
650.255	271.53979
650.455	257.71586
650.655	267.12116
650.855	330.82971
651.055	428.72156
651.255	460.13956
651.455	474.24442
651.655	341.60901
651.854	357.94519
652.054	260.16854
652.254	323.62338
652.454	442.41232
652.654	403.76226
652.853	635.21141
653.053	878.59494
653.253	1727.61348
653.452	4789.63909
653.652	16515.5594
653.852	41693.2772
654.051	63337.49664
654.251	63337.49664
654.451	63337.49664
654.65	63337.49664
654.85	63337.49664
655.049	63337.49664
655.249	63337.49664
655.449	63337.49664
655.648	63337.49664
655.848	63337.49664
656.047	63337.49664
656.247	63337.49664
656.446	63337.49664
656.645	63337.49664
656.845	63337.49664
657.044	63337.49664
657.244	63337.49664
657.443	63337.49664
657.643	63337.49664
657.842	63337.49664
658.041	63337.49664
658.241	63337.49664
658.44	63337.49664
658.639	63337.49664
658.839	57349.86278
659.038	34731.47935
659.237	2984.45701
659.436	2743.89945
659.636	2094.87941
659.835	1969.65487
660.034	1625.60517
660.233	1540.72699
660.432	1294.23185
660.631	1297.76201
660.831	1184.85679
661.03	1127.57656
661.229	1085.67211
661.428	985.49369
661.627	942.63988
661.826	932.16275
662.025	835.58751
662.224	783.25156
662.423	744.58431
662.622	694.26154
662.821	694.39442
663.02	739.54214
663.219	626.18496
663.418	702.20666
663.617	674.5367
663.816	614.8917
664.015	526.19239
664.214	528.19586
664.412	543.73845
664.611	574.74742
664.81	516.17314
665.009	598.47751
665.208	499.89503
665.406	412.74569
665.605	480.79952
665.804	430.30261
666.003	472.74592
666.201	397.43202
666.4	390.64432
666.599	432.71422
666.798	406.49779
666.996	414.67611
667.195	344.56524
667.394	365.84137
667.592	421.13675
667.791	363.26325
667.989	414.46162
668.188	389.83935
668.386	437.75118
668.585	347.3062
668.783	406.22961
668.982	401.61656
669.18	422.12851
669.379	369.89607
669.577	298.81792
669.776	298.38727
669.974	379.29227
670.173	329.6467
670.371	327.52254
670.57	305.38454
670.768	343.7859
670.966	386.05571
671.165	366.29788
671.363	318.02919
671.561	362.88726
671.76	412.85294
671.958	408.53588
672.156	355.98425
672.354	294.888
672.553	304.03904
672.751	257.14982
672.949	282.26022
673.147	358.64358
673.345	266.47448
673.543	333.46441
673.742	236.14476
673.94	252.59419
674.138	279.24382
674.336	252.89074
674.534	254.31949
674.732	324.67217
674.93	283.8491
675.128	222.76249
675.326	244.2628
675.524	236.49542
675.722	293.9189
675.92	234.58023
676.118	222.51961
676.316	269.08808
676.514	269.27668
676.712	203.32536
676.91	257.39241
677.108	261.00402
677.305	290.68833
677.503	243.96617
677.701	259.44084
677.899	215.1782
678.097	249.19722
678.295	214.28738
678.492	226.00071
678.69	326.17806
678.888	238.46444
679.085	314.39778
679.283	232.31419
679.481	160.70565
679.679	216.04199
679.876	207.80788
680.074	252.89074
680.271	224.03084
680.469	217.4456
680.667	261.30048
680.864	253.72643
681.062	271.27038
681.259	241.86269
681.457	167.169
681.654	254.48123
681.852	171.87359
682.049	200.84076
682.247	179.46956
682.444	200.51667
682.642	237.79013
682.839	157.13529
683.037	215.82605
683.234	271.08179
683.431	223.78797
683.629	154.37606
683.826	184.4153
684.023	244.0201
684.221	279.35155
684.418	287.43047
684.615	275.09575
684.813	287.61895
685.01	283.87603
685.207	213.58551
685.404	147.53091
685.601	263.15999
685.799	278.46274
685.996	220.44153
686.193	208.02389
686.39	167.7098
686.587	237.08884
686.784	229.15763
686.981	243.18412
687.179	215.09722
687.376	136.38023
687.573	195.06052
687.77	222.92441
687.967	196.57322
688.164	199.67941
688.361	182.68574
688.558	200.03052
688.755	182.87491
688.952	279.64782
689.148	227.24193
689.345	176.98285
689.542	203.40637
689.739	175.84754
689.936	164.27555
690.133	224.81341
690.33	153.23983
690.526	212.69464
690.723	319.56232
690.92	242.34812
691.117	157.54104
691.314	152.23882
691.51	142.71394
691.707	168.71025
691.904	171.03548
692.1	257.71586
692.297	159.54263
692.494	177.44237
692.69	301.88611
692.887	240.75695
693.084	194.89844
693.28	161.11135
693.477	190.35983
693.673	174.57702
693.87	178.95602
694.066	138.38336
694.263	141.17124
694.459	162.05794
694.656	164.00512
694.852	171.73841
695.049	174.79328
695.245	209.91388
695.442	176.79364
695.638	120.94589
695.834	165.35725
696.031	181.73984
696.227	206.91684
696.423	201.59697
696.62	219.03807
696.816	249.41291
697.012	165.11387
697.209	201.94806
697.405	232.23326
697.601	272.02472
697.797	168.73729
697.994	177.68564
698.19	125.82083
698.386	228.61801
698.582	214.07142
698.778	134.56647
698.974	136.54265
699.17	153.3751
699.367	175.41503
699.563	240.75695
699.759	103.84967
699.955	167.19604
700.151	168.14243
700.347	146.69206
700.543	197.03242
700.739	274.42231
700.935	150.50727
701.131	146.34027
701.327	166.24962
701.523	237.60132
701.718	141.38777
701.914	183.03706
702.11	219.68583
702.306	223.76098
702.502	173.60382
702.698	116.0159
702.894	163.2479
703.089	142.87632
703.285	146.58382
703.481	149.12736
703.677	207.91589
703.872	127.14774
704.068	145.71788
704.264	114.85099
704.459	94.74176
704.655	107.58953
704.851	112.54813
705.046	80.96569
705.242	92.03049
705.438	93.19637
705.633	109.51346
705.829	113.8215
706.024	170.9814
706.22	202.54219
706.415	202.40716
706.611	161.30067
706.806	246.52788
707.002	154.21375
707.197	180.65878
707.393	167.95315
707.588	115.745
707.784	195.81688
707.979	136.73214
708.174	107.80632
708.37	108.99862
708.565	144.14829
708.76	112.84616
708.956	155.05237
709.151	143.76941
709.346	120.10623
709.542	110.57022
709.737	103.1721
709.932	187.98217
710.127	150.77783
710.322	128.36628
710.518	128.69122
710.713	108.29409
710.908	79.77216
711.103	138.05853
711.298	187.06347
711.493	101.27482
711.688	108.91733
711.883	122.0022
712.078	206.4848
712.273	189.144
712.468	93.52172
712.663	142.33504
712.858	155.18763
713.053	141.14418
713.248	144.90603
713.443	152.96929
713.638	94.98576
713.833	91.02725
714.028	123.89804
714.223	235.41645
714.418	249.6286
714.613	128.01427
714.807	226.08166
715.002	104.63562
715.197	136.4073
715.392	64.19715
715.587	104.01228
715.781	127.55393
715.976	110.35345
716.171	208.9419
716.365	125.63126
716.56	162.65293
716.755	76.10985
716.949	146.36733
717.144	153.3751
717.339	130.93858
717.533	145.66375
717.728	175.44206
717.922	68.83803
718.117	70.81898
718.312	162.22021
718.506	126.19995
718.701	243.10322
718.895	243.02232
719.089	152.83402
719.284	152.15766
719.478	117.83089
719.673	64.76713
719.867	163.95104
720.062	143.14696
720.256	130.39707
720.45	112.87325
720.645	69.05513
720.839	137.35474
721.033	163.73469
721.228	103.90387
721.422	154.15964
721.616	131.69669
721.81	149.23559
722.005	141.46896
722.199	177.00988
722.393	95.85331
722.587	86.74273
722.781	156.70249
722.975	176.44223
723.169	155.75571
723.364	144.82485
723.558	109.05282
723.752	131.72376
723.946	216.12297
724.14	124.4126
724.334	152.77991
724.528	119.18528
724.722	113.68604
724.916	174.79328
725.11	144.87897
725.304	138.5187
725.498	182.0101
725.692	135.2974
725.885	168.8184
726.079	218.0934
726.273	132.67136
726.467	116.25971
726.661	111.19341
726.855	152.15766
727.048	209.3739
727.242	94.71465
727.436	154.43017
727.63	96.34129
727.823	175.55019
728.017	78.74134
728.211	111.78949
728.405	175.36097
728.598	112.54813
728.792	122.30012
728.986	178.68573
729.179	143.98591
729.373	131.37179
729.566	159.59673
729.76	146.96266
729.953	141.79374
730.147	190.71106
730.34	144.82485
730.534	262.16288
730.727	184.25315
730.921	192.16996
731.114	193.43968
731.308	149.50617
731.501	132.72551
731.695	140.14274
731.888	154.70069
732.081	133.37528
732.275	140.35927
732.468	142.44329
732.661	159.75901
732.855	103.71415
733.048	103.52444
733.241	81.88793
733.434	179.52362
733.628	178.84791
733.821	193.08849
734.014	158.623
734.207	192.81834
734.4	116.58479
734.594	138.13974
734.787	150.56138
734.98	142.741
735.173	168.35874
735.366	77.1679
735.559	174.95548
735.752	95.52798
735.945	57.38365
736.138	88.7766
736.331	136.75921
736.524	194.52025
736.717	131.01981
736.91	155.37699
737.103	159.62377
737.296	151.12956
737.489	176.14489
737.682	52.82226
737.875	118.18304
738.067	161.21953
738.26	165.78992
738.453	174.17152
738.646	147.44973
738.839	138.16681
739.031	167.89908
739.224	124.81883
739.417	158.67709
739.61	202.1371
739.802	110.21797
739.995	64.57714
740.188	192.62923
740.38	124.30427
740.573	131.12811
740.765	96.47684
740.958	20.35418
741.151	169.06175
741.343	70.41195
741.536	96.12441
741.728	75.62151
741.921	110.51602
742.113	77.1679
742.306	99.18767
742.498	91.24417
742.691	125.33337
742.883	81.64381
743.076	72.06718
743.268	81.83368
743.46	167.11492
743.653	78.95835
743.845	139.06005
744.037	113.4693
744.23	77.05939
744.422	123.57305
744.614	102.22348
744.807	127.8518
744.999	135.81175
745.191	145.69082
745.383	128.88076
745.575	91.84069
745.768	122.54388
745.96	144.96016
746.152	143.17402
746.344	90.32225
746.536	178.22624
746.728	162.22021
746.92	158.73119
747.112	106.39717
747.304	126.79571
747.496	119.48324
747.688	97.29011
747.88	38.67157
748.072	166.81748
748.264	105.71966
748.456	125.0084
748.648	94.19953
748.84	111.05793
749.032	80.26043
749.224	146.04261
749.416	161.62522
749.608	172.65761
749.799	141.17124
749.991	149.12736
750.183	171.46805
750.375	99.37742
750.567	111.43726
750.758	52.06195
750.95	137.92319
751.142	84.22051
751.333	104.39171
751.525	126.84987
751.717	130.6949
751.908	219.87476
752.1	102.16927
752.292	106.18037
752.483	114.11952
752.675	95.39243
752.866	118.91441
753.058	195.60078
753.249	150.37199
753.441	138.38336
753.632	67.64396
753.824	95.0671
754.015	95.77198
754.207	175.87457
754.398	145.39314
754.589	104.03938
754.781	91.81358
754.972	101.84402
755.164	108.37538
755.355	115.71791
755.546	136.75921
755.738	95.79909
755.929	133.67308
756.12	184.25315
756.311	190.35983
756.503	123.24805
756.694	148.88384
756.885	131.83206
757.076	227.56572
757.267	227.21495
757.458	197.51862
757.65	167.76388
757.841	151.96828
758.032	243.88527
758.223	184.44232
758.414	177.87485
758.605	187.09049
758.796	110.70569
758.987	204.24352
759.178	82.15917
759.369	77.81899
759.56	134.64768
759.751	126.47075
759.942	140.06154
760.133	90.26802
760.324	135.4869
760.514	129.39523
760.705	179.82093
760.896	105.96357
761.087	137.54423
761.278	100.35324
761.468	88.99354
761.659	151.91417
761.85	162.0309
762.041	72.20285
762.231	181.84795
762.422	97.61542
762.613	164.35668
762.803	99.07924
762.994	241.593
763.185	94.76887
763.375	143.25521
763.566	133.18576
763.757	123.11263
763.947	101.65429
764.138	137.89612
764.328	169.08879
764.519	188.90083
764.709	129.42231
764.9	139.65553
765.09	139.95327
765.281	107.31854
765.471	64.65856
765.661	89.07489
765.852	102.68424
766.042	116.80151
766.232	62.97574
766.423	54.42427
766.613	106.69526
766.803	100.00086
766.994	128.20382
767.184	119.83536
767.374	188.38746
767.564	183.19921
767.755	144.04004
767.945	79.58227
768.135	111.54564
768.325	179.6047
768.515	132.4277
768.706	124.57509
768.896	147.17914
769.086	160.89498
769.276	146.01555
769.466	117.72254
769.656	121.78552
769.846	121.18965
770.036	163.32903
770.226	139.19539
770.416	113.49639
770.606	135.73054
770.796	199.70642
770.986	143.30934
771.176	98.9166
771.366	140.71113
771.555	151.18367
771.745	56.65062
771.935	160.70565
772.125	105.50286
772.315	104.90664
772.504	160.75974
772.694	78.14453
772.884	160.54337
773.074	49.86237
773.263	137.40888
773.453	117.93924
773.643	173.92822
773.832	157.70333
774.022	174.82032
774.212	96.88348
774.401	46.68487
774.591	42.50196
774.781	55.15735
774.97	138.35629
775.16	67.48113
775.349	68.26814
775.539	82.40328
775.728	36.2807
775.918	106.88496
776.107	198.35595
776.297	290.17679
776.486	569.27901
776.675	654.61386
776.865	475.84988
777.054	200.51667
777.243	162.08499
777.433	149.28971
777.622	160.11062
777.811	136.59679
778.001	147.44973
778.19	109.02572
778.379	69.35364
778.568	147.39561
778.758	111.62693
778.947	107.15595
779.136	146.74618
779.325	142.93045
779.514	66.88407
779.703	161.35476
779.892	64.87569
780.082	92.59988
780.271	63.35574
780.46	126.82279
780.649	131.61546
780.838	109.43217
781.027	40.11143
781.216	54.91299
781.405	45.81575
781.594	148.55914
781.783	180.2804
781.971	182.0101
782.16	98.88949
782.349	202.89327
782.538	65.68992
782.727	149.74968
782.916	70.71044
783.105	135.64933
783.293	94.8231
783.482	182.82086
783.671	144.0671
783.86	108.32118
784.048	64.0343
784.237	39.86693
784.426	83.46109
784.614	103.49733
784.803	121.73135
784.992	5.69661
785.18	94.76887
785.369	112.6565
785.557	105.36735
785.746	130.04508
785.935	113.87569
786.123	99.40452
786.312	38.07387
786.5	129.69308
786.689	94.55198
786.877	112.14172
787.065	145.96142
787.254	9.93971
787.442	47.93419
787.631	111.30179
787.819	111.16631
788.007	146.04261
788.196	152.18472
788.384	143.90473
788.572	157.40579
788.761	61.42853
788.949	77.95463
789.137	104.90664
789.325	92.8439
789.513	68.64807
789.702	95.74487
789.89	121.81261
790.078	85.49521
790.266	52.93087
790.454	110.59731
790.642	63.27431
790.83	157.32464
791.018	88.72237
791.207	86.55289
791.395	136.05539
791.583	66.1513
791.771	144.36479
791.959	88.96643
792.146	70.71044
792.334	50.05246
792.522	81.23694
792.71	98.97081
792.898	102.54872
793.086	156.24263
793.274	64.87569
793.462	160.92202
793.65	179.92904
793.837	51.68179
794.025	134.78304
794.213	53.82692
794.401	174.36076
794.588	85.0884
794.776	26.19863
794.964	41.65986
795.151	111.54564
795.339	108.23989
795.527	71.28028
795.714	24.75803
795.902	89.50876
796.089	62.86716
796.277	52.76795
796.465	170.1703
796.652	109.70314
796.84	63.49145
797.027	107.45404
797.215	72.88119
797.402	155.18763
797.59	169.44028
797.777	78.65995
797.964	42.36614
798.152	71.63303
798.339	154.94416
798.526	37.04145
798.714	53.88122
798.901	79.74503
799.088	127.77056
799.276	71.87724
799.463	94.38931
799.65	45.16389
799.837	89.67146
800.025	24.4862
800.212	109.1612
800.399	83.92217
800.586	77.05939
800.773	48.53167
800.96	38.0467
801.148	139.38486
801.335	125.1438
801.522	142.41623
801.709	42.12166
801.896	109.10701
802.083	61.94427
802.27	67.48113
802.457	91.18994
802.644	56.29768
802.831	68.29528
803.018	65.36423
803.204	72.79979
803.391	85.98338
803.578	59.52833
803.765	65.28281
803.952	131.15519
804.139	62.24286
804.326	107.15595
804.512	87.50206
804.699	145.772
804.886	62.62287
805.073	39.81259
805.259	85.35961
805.446	261.13878
805.633	110.46183
805.819	157.67628
806.006	139.79087
806.192	109.86572
806.379	47.41818
806.566	55.75467
806.752	124.03345
806.939	72.01291
807.125	15.05228
807.312	97.2359
807.498	89.2376
807.685	119.48324
807.871	60.72275
808.058	121.16257
808.244	108.61926
808.43	138.95178
808.617	120.45835
808.803	102.19637
808.99	76.32689
809.176	68.10531
809.362	78.06314
809.549	102.30479
809.735	96.50395
809.921	21.82221
810.107	100.86825
810.293	67.48113
810.48	110.46183
810.666	90.10532
810.852	96.53106
811.038	73.28818
811.224	69.00086
811.41	98.07626
811.597	150.56138
811.783	40.60042
811.969	71.66016
812.155	19.91919
812.341	99.64848
812.527	87.28511
812.713	93.79285
812.899	75.05176
813.085	61.86284
813.271	87.4207
813.456	107.69792
813.642	56.21623
813.828	62.92145
814.014	130.50537
814.2	85.98338
814.386	91.16282
814.572	20.92509
814.757	119.07693
814.943	166.68227
815.129	121.24383
815.315	87.69189
815.5	85.00703
815.686	132.83381
815.872	16.62937
816.057	48.69461
816.243	160.40814
816.429	64.82141
816.614	84.03066
816.8	49.15629
816.985	74.80758
817.171	81.42681
817.356	118.53518
817.542	104.20199
817.727	124.90007
817.913	14.9979
818.098	73.9665
818.284	34.16133
818.469	70.92752
818.655	54.50572
818.84	128.55583
819.025	33.72657
819.211	146.15085
819.396	133.97088
819.581	51.193
819.767	40.19292
819.952	93.41327
820.137	124.98132
820.322	132.86088
820.508	212.55966
820.693	100.00086
820.878	57.98092
821.063	96.50395
821.248	135.21619
821.433	36.36221
821.618	92.30163
821.804	79.98917
821.989	42.61061
822.174	106.26167
822.359	159.24511
822.544	12.87684
822.729	118.94149
822.914	14.67159
823.099	54.94015
823.284	73.66804
823.469	67.20974
823.653	108.0502
823.838	97.99493
824.023	66.287
824.208	64.63142
824.393	125.22505
824.578	89.4003
824.762	-0.94139
824.947	78.22591
825.132	71.74157
825.317	76.02846
825.501	109.59475
825.686	77.57483
825.871	48.34156
826.056	87.99019
826.24	107.34564
826.425	118.58936
826.609	41.98584
826.794	14.78036
826.979	77.68335
827.163	71.38882
827.348	54.85869
827.532	49.61796
827.717	76.59819
827.901	61.2928
828.086	103.95807
828.27	53.22956
828.455	114.33625
828.639	132.96917
828.823	115.93463
829.008	42.96374
829.192	50.51411
829.376	100.00086
829.561	49.97099
829.745	50.9486
829.929	12.68648
830.114	87.96307
830.298	170.41363
830.482	53.82692
830.666	112.73778
830.85	55.78182
831.035	94.41642
831.219	19.81044
831.403	9.50455
831.587	33.9983
831.771	143.60703
831.955	108.75475
832.139	44.13174
832.323	101.1393
832.507	16.35746
832.691	55.45602
832.875	8.9062
833.059	32.17767
833.243	4.3365
833.427	49.37355
833.611	70.19486
833.795	41.22522
833.979	108.29409
834.163	43.66998
834.346	120.62086
834.53	61.2928
834.714	86.11898
834.898	72.17571
835.082	69.24509
835.265	91.678
835.449	67.29116
835.633	12.30576
835.816	88.83084
836	26.95968
836.184	102.92817
836.367	108.0502
836.551	99.56716
836.735	113.36093
836.918	12.36015
837.102	63.03002
837.285	60.66846
837.469	72.74552
837.652	114.68845
837.836	60.91277
838.019	42.23032
838.203	80.36893
838.386	27.31301
838.569	35.51992
838.753	163.92399
838.936	25.27448
839.12	46.76635
839.303	76.43541
839.486	97.64253
839.669	23.72509
839.853	57.5194
840.036	62.97574
840.219	55.23881
840.402	1.88813
840.586	79.69078
840.769	72.88119
840.952	23.09987
841.135	118.86023
841.318	49.15629
841.501	41.33388
841.684	-0.17957
841.868	118.45392
842.051	77.46632
842.234	98.9166
842.417	39.02475
842.6	86.41729
842.783	90.2409
842.966	63.00288
843.149	208.2939
843.331	81.56243
843.514	256.42205
843.697	267.76784
843.88	294.99568
844.063	194.08803
844.246	144.14829
844.429	70.68331
844.611	90.78321
844.794	108.0231
844.977	104.66272
845.16	112.41266
845.342	108.34828
845.525	72.90832
845.708	20.00075
845.89	66.17844
846.073	15.62331
846.256	83.10849
846.438	61.5914
846.621	142.33504
846.803	69.95064
846.986	18.587
847.168	74.9975
847.351	121.81261
847.533	71.22601
847.716	92.4372
847.898	129.80139
848.081	-10.22108
848.263	68.18673
848.446	43.61565
848.628	112.35847
848.81	29.86775
848.993	33.94395
849.175	26.00837
849.357	69.51646
849.539	76.19124
849.722	39.86693
849.904	24.70366
850.086	61.0485
850.268	145.2849
850.451	163.38312
850.633	104.47301
850.815	21.93095
850.997	158.10907
851.179	60.93992
851.361	49.07482
851.543	63.76288
851.725	95.71776
851.907	47.6626
852.089	103.98518
852.271	64.63142
852.453	118.23721
852.635	80.20617
852.817	59.55547
852.999	62.18857
853.181	28.78066
853.363	61.15708
853.545	65.8799
853.727	51.89902
853.908	48.74893
854.09	87.14952
854.272	146.71912
854.454	57.60084
854.636	114.95936
854.817	29.32421
854.999	93.35905
855.181	77.71048
855.362	72.79979
855.544	52.22488
855.726	88.07154
855.907	63.81716
856.089	61.31995
856.27	90.56629
856.452	59.20256
856.634	95.0671
856.815	79.44664
856.997	115.93463
857.178	42.66494
857.36	18.96763
857.541	5.58781
857.722	48.58598
857.904	80.88431
858.085	48.55883
858.267	104.20199
858.448	54.83154
858.629	65.0114
858.811	22.03969
858.992	90.02397
859.173	89.48165
859.354	67.64396
859.536	137.6525
859.717	12.52332
859.898	68.07818
860.079	84.35612
860.26	66.88407
860.441	103.76836
860.623	78.17165
860.804	39.35076
860.985	90.21379
861.166	49.04766
861.347	-3.85285
861.528	5.85982
861.709	104.55432
861.89	63.19288
862.071	100.86825
862.252	70.43909
862.433	55.18451
862.614	189.06295
862.794	41.06223
862.975	91.2984
863.156	167.49348
863.337	48.04282
863.518	116.80151
863.699	69.19081
863.879	116.12426
864.06	50.59558
864.241	94.19953
864.422	69.67928
864.602	41.6327
864.783	120.9188
864.964	43.64282
865.144	59.09398
865.325	52.11626
865.506	86.39017
865.686	43.39835
865.867	89.69858
866.047	77.76473
866.228	76.81522
866.408	36.52523
866.589	65.36423
866.769	97.58831
866.95	41.82285
867.13	66.31414
867.31	79.85353
867.491	86.79697
867.671	-5.05017
867.852	29.05243
868.032	113.8215
868.212	89.45453
868.393	117.96633
868.573	70.19486
868.753	38.59007
868.933	69.97777
869.113	67.86107
869.294	57.98092
869.474	105.04214
869.654	58.84965
869.834	54.45142
870.014	65.25567
870.194	22.14843
870.374	99.16056
870.555	38.67157
870.735	55.37456
870.915	77.62909
871.095	55.80897
871.275	88.34272
871.455	114.87809
871.634	44.13174
871.814	109.56766
871.994	65.30995
872.174	70.79185
872.354	121.81261
872.534	60.01696
872.714	47.55397
872.894	33.78092
873.073	70.68331
873.253	103.2263
873.433	34.18851
873.613	3.24836
873.792	66.93835
873.972	67.42685
874.152	26.00837
874.331	95.52798
874.511	134.59354
874.691	33.45484
874.87	37.34031
875.05	44.83795
875.229	26.36171
875.409	80.45031
875.588	36.19919
875.768	94.38931
875.947	163.32903
876.127	143.22815
876.306	64.6857
876.486	66.23272
876.665	97.10035
876.844	65.68992
877.024	124.95423
877.203	98.83527
877.382	45.62563
877.562	22.42027
877.741	34.32437
877.92	101.7356
878.1	86.39017
878.279	31.19938
878.458	39.02475
878.637	48.39588
878.816	94.71465
878.996	54.09844
879.175	74.78045
879.354	51.62748
879.533	109.9741
879.712	60.04411
879.891	58.93109
880.07	112.98162
880.249	74.9975
880.428	75.16029
880.607	107.12885
880.786	20.73479
880.965	129.36816
881.144	66.5584
881.323	14.34529
881.502	59.96267
881.68	40.98073
881.859	40.73624
882.038	85.65793
882.217	71.57876
882.396	5.69661
882.574	47.03795
882.753	54.99445
882.932	61.69997
883.111	111.68111
883.289	73.01685
883.468	63.32859
883.647	66.85694
883.825	67.94249
884.004	88.23425
884.182	76.92374
884.361	66.20558
884.539	42.82792
884.718	90.21379
884.896	14.18213
885.075	66.287
885.253	115.20318
885.432	65.11996
885.61	20.13669
885.789	49.04766
885.967	35.68294
886.145	95.55509
886.324	94.30798
886.502	62.48715
886.68	100.89535
886.859	30.32975
887.037	105.34025
887.215	80.72156
887.393	137.5713
887.572	30.43846
887.75	81.64381
887.928	112.81906
888.106	89.10201
888.284	120.45835
888.462	84.30188
888.64	55.32026
888.819	67.58969
888.997	87.96307
889.175	49.42786
889.353	8.25343
889.531	60.91277
889.709	55.91757
889.887	42.013
890.065	119.7541
890.242	84.89855
890.42	131.01981
890.598	43.96877
890.776	108.91733
890.954	26.14427
891.132	27.96531
891.309	16.90127
891.487	82.21342
891.665	53.6097
891.843	57.54655
892.02	43.91444
892.198	89.31895
892.376	86.82409
892.553	121.86678
892.731	133.51064
892.909	77.90037
893.086	104.44591
893.264	77.41206
893.441	33.07442
893.619	62.05285
893.797	69.13654
893.974	71.71443
894.151	73.64091
894.329	44.13174
894.506	15.54173
894.684	56.65062
894.861	93.95552
895.039	46.22316
895.216	36.9056
895.393	88.99354
895.571	9.45016
895.748	51.57317
895.925	143.55291
896.102	95.5822
896.28	40.73624
896.457	24.73084
896.634	38.88891
896.811	29.18832
896.988	45.27253
897.166	54.99445
897.343	35.03084
897.52	105.20475
897.697	19.83763
897.874	109.91991
898.051	98.97081
898.228	59.25686
898.405	14.56283
898.582	1.50725
898.759	36.9056
898.936	93.44039
899.113	110.08249
899.29	108.75475
899.467	115.41991
899.643	107.15595
899.82	121.35217
899.997	108.78184
900.174	-1.05023
900.351	97.07324
900.527	63.49145
900.704	54.85869
900.881	129.88262
901.058	37.36748
901.234	68.53952
901.411	101.60008
901.588	68.72948
901.764	78.47006
901.941	94.11819
902.117	56.13478
902.294	43.53417
902.471	127.7164
902.647	42.71927
902.824	52.06195
903	62.29715
903.176	64.90283
903.353	68.40383
903.529	26.08991
903.706	94.76887
903.882	66.44984
904.058	3.98286
904.235	-9.13238
904.411	31.0635
904.587	55.51032
904.764	63.11145
904.94	40.43742
905.116	53.71831
905.292	80.74869
905.469	80.64018
905.645	65.93418
905.821	101.1393
905.997	40.22009
906.173	28.31863
906.349	70.41195
906.525	57.89948
906.702	48.1243
906.878	45.13673
907.054	38.75307
907.23	76.5168
907.406	51.81756
907.582	128.42044
907.757	44.13174
907.933	45.54414
908.109	97.94072
908.285	74.9975
908.461	98.53709
908.637	18.91326
908.813	62.73145
908.988	63.68145
909.164	105.55706
909.34	70.33054
909.516	30.65586
909.691	41.71419
909.867	99.3232
910.043	73.72231
910.219	109.2154
910.394	105.99067
910.57	97.85939
910.745	97.80518
910.921	97.29011
911.097	24.73084
911.272	20.24543
911.448	119.69993
911.623	21.68628
911.799	13.09439
911.974	-4.09775
912.149	47.63545
912.325	76.2455
912.5	59.41974
912.676	46.60339
912.851	43.507
913.026	98.67263
913.202	-1.21348
913.377	35.13952
913.552	12.74087
913.727	158.16317
913.903	66.61268
914.078	31.74288
914.253	57.81803
914.428	65.98846
914.603	-28.02764
914.779	19.81044
914.954	49.0205
915.129	94.87732
915.304	78.87697
915.479	46.71203
915.654	46.98363
915.829	93.92841
916.004	8.879
916.179	105.69256
916.354	23.56199
916.529	91.27128
916.704	57.89948
916.879	74.42774
917.053	96.53106
917.228	60.12555
917.403	76.35402
917.578	121.51467
917.753	65.4728
917.927	19.2667
918.102	40.22009
918.277	55.78182
918.452	67.6711
918.626	41.98584
918.801	86.44441
918.976	58.27955
919.15	41.60553
919.325	88.1529
919.499	77.38493
919.674	72.63699
919.849	61.88999
920.023	112.16881
920.198	83.62382
920.372	50.18824
920.547	80.2333
920.721	12.25137
920.895	88.26137
921.07	50.59558
921.244	97.61542
921.419	101.1664
921.593	43.69714
921.767	73.42385
921.942	61.94427
922.116	10.70122
922.29	54.9673
922.464	62.37858
922.639	15.56893
922.813	36.36221
922.987	95.12132
923.161	29.73186
923.335	59.20256
923.509	66.53126
923.683	72.96259
923.858	57.65514
924.032	122.1647
924.206	103.30761
924.38	-19.23176
924.554	40.11143
924.728	44.64782
924.902	138.13974
925.075	90.29513
925.249	60.17984
925.423	123.73554
925.597	74.40061
925.771	39.81259
925.945	58.11666
926.119	140.27807
926.292	90.32225
926.466	66.1513
926.64	83.13561
926.814	76.43541
926.987	-3.77121
927.161	30.68304
927.335	11.78905
927.508	101.78981
927.682	-18.16992
927.856	29.16114
928.029	97.8865
928.203	84.57309
928.376	114.11952
928.55	37.9652
928.723	11.4899
928.897	63.92573
929.07	53.98983
929.244	92.92524
929.417	-26.61139
929.59	64.87569
929.764	54.15275
929.937	83.40684
930.111	100.57009
930.284	0.63665
930.457	4.47252
930.63	38.78024
930.804	64.71285
930.977	61.86284
931.15	74.42774
931.323	137.46302
931.497	35.6286
931.67	59.31115
931.843	101.08509
932.016	-9.84003
932.189	84.68158
932.362	79.79928
932.535	113.09
932.708	80.3418
932.881	37.47616
933.054	78.55144
933.227	105.39445
933.4	9.31417
933.573	51.68179
933.746	27.20429
933.919	95.50087
934.092	48.42304
934.264	48.20577
934.437	37.85652
934.61	30.65586
934.783	52.30634
934.956	5.56061
935.128	73.01685
935.301	93.11503
935.474	49.64512
935.646	20.24543
935.819	60.83134
935.992	75.64864
936.164	6.81185
936.337	45.48982
936.51	37.58484
936.682	60.91277
936.855	22.33872
937.027	118.91441
937.2	67.34544
937.372	26.6607
937.545	73.39672
937.717	47.49965
937.889	54.45142
938.062	98.61842
938.234	94.09108
938.406	38.20971
938.579	76.13698
938.751	93.35905
938.923	76.76096
939.096	118.2643
939.268	66.61268
939.44	82.59315
939.612	76.73384
939.784	82.62027
939.957	85.06128
940.129	89.96974
940.301	76.57106
940.473	60.7499
940.645	123.51888
940.817	89.61723
940.989	51.60032
941.161	40.98073
941.333	88.36984
941.505	34.4874
941.677	54.31566
941.849	44.81079
942.021	56.21623
942.193	23.12706
942.365	10.8644
942.537	63.19288
942.708	94.14531
942.88	90.34936
943.052	-9.07795
943.224	29.05243
943.395	51.38309
943.567	49.15629
943.739	64.38715
943.911	14.83475
944.082	52.95803
944.254	135.54104
944.425	9.06939
944.597	37.34031
944.769	88.50543
944.94	65.93418
945.112	125.65834
945.283	128.0955
945.455	26.71506
945.626	77.90037
945.798	47.2009
945.969	66.77552
946.14	78.68708
946.312	76.08272
946.483	19.56576
946.655	56.40628
946.826	57.60084
946.997	104.09359
947.168	1.80651
947.34	18.77732
947.511	102.16927
947.682	60.17984
947.853	25.6822
948.025	67.77966
948.196	14.50844
948.367	56.46058
948.538	21.79502
948.709	76.40828
948.88	52.60503
949.051	66.0156
949.222	23.88819
949.393	83.13561
949.564	52.06195
949.735	28.1012
949.906	33.42767
950.077	30.49281
950.248	76.02846
950.419	38.0467
950.59	18.26074
950.761	9.06939
950.931	81.77943
951.102	90.86456
951.273	58.68677
951.444	78.19878
951.614	111.7624
951.785	47.63545
951.956	45.38118
952.126	106.23457
952.297	161.97681
952.468	39.07908
952.638	20.87072
952.809	65.25567
952.98	31.66136
953.15	42.71927
953.321	33.45484
953.491	13.09439
953.662	69.67928
953.832	39.97559
954.002	-3.11815
954.173	-39.93267
954.343	44.02309
954.514	-3.52631
954.684	5.4246
954.854	55.80897
955.025	51.51886
955.195	58.74106
955.365	67.96962
955.535	15.16105
955.706	108.0502
955.876	93.84707
956.046	99.75691
956.216	78.4158
956.386	88.09866
956.557	62.48715
956.727	18.8045
956.897	66.77552
957.067	42.14882
957.237	34.54174
957.407	76.21837
957.577	78.06314
957.747	33.64505
957.917	45.02808
958.087	5.479
958.257	81.53531
958.427	48.09714
958.596	-4.77805
958.766	88.18002
958.936	-24.35099
959.106	104.01228
959.276	37.09579
959.445	2.24179
959.615	72.17571
959.785	88.20713
959.955	149.20853
960.124	57.68229
960.294	71.6059
960.464	28.12838
960.633	10.81001
960.803	41.98584
960.972	64.92998
961.142	2.97632
961.311	38.4814
961.481	44.9466
961.65	70.98179
961.82	75.18742
961.989	152.02239
962.159	59.41974
962.328	104.60852
962.498	108.0502
962.667	-27.70081
962.836	36.00899
963.006	78.79559
963.175	62.97574
963.344	92.32874
963.513	39.62243
963.683	-18.57831
963.852	27.63916
964.021	50.89429
964.19	3.41159
964.359	18.31511
964.528	73.34245
964.698	-0.34282
964.867	40.46459
965.036	59.36545
965.205	113.03581
965.374	72.90832
965.543	90.78321
965.712	39.35076
965.881	75.48585
966.05	25.41039
966.219	36.74259
966.387	89.4003
966.556	79.14824
966.725	42.013
966.894	86.39017
967.063	55.80897
967.232	80.64018
967.4	20.08231
967.569	34.89498
967.738	121.70427
967.906	0.0653
968.075	90.78321
968.244	6.48545
968.412	14.07336
968.581	79.28388
968.75	47.09227
968.918	39.81259
969.087	20.02794
969.255	70.87325
969.424	60.17984
969.592	85.27824
969.761	59.58262
969.929	71.30741
970.098	78.57857
970.266	-19.39512
970.434	44.81079
970.603	70.62904
970.771	88.50543
970.939	43.507
971.108	124.79175
971.276	37.12296
971.444	67.26402
971.612	-37.45314
971.781	38.5629
971.949	191.19737
972.117	62.18857
972.285	100.48877
972.453	11.16355
972.621	15.97679
972.789	35.08518
972.957	94.60621
973.125	29.35139
973.293	54.26135
973.461	66.0156
973.629	107.10175
973.797	33.10159
973.965	69.9235
974.133	39.13342
974.301	51.57317
974.469	8.38943
974.637	38.53573
974.805	129.36816
974.972	62.94859
975.14	116.23262
975.308	31.49831
975.476	8.28063
975.643	85.73929
975.811	18.3423
975.979	130.1263
976.146	47.7984
976.314	87.47494
976.482	60.99421
976.649	35.65577
976.817	70.65617
976.984	77.84612
977.152	36.0905
977.319	114.95936
977.487	108.51087
977.654	82.34904
977.822	10.15729
977.989	62.46001
978.156	41.57837
978.324	55.42886
978.491	31.85158
978.658	7.35585
978.826	69.51646
978.993	60.61417
979.16	39.07908
979.328	35.41123
979.495	79.50089
979.662	6.78465
979.829	26.22581
979.996	96.50395
980.163	105.66546
980.33	23.07269
980.498	44.07742
980.665	81.99642
980.832	-6.7102
980.999	50.75852
981.166	39.05192
981.333	101.1664
981.5	63.68145
981.667	182.52359
981.833	-3.90727
982	103.25341
982.167	26.98686
982.334	36.71542
982.501	36.5524
982.668	57.13931
982.834	2.56825
983.001	112.79197
983.168	105.39445
983.335	39.62243
983.501	55.78182
983.668	25.62784
983.835	39.62243
984.001	74.15642
984.168	18.0976
984.334	92.00338
984.501	50.75852
984.668	29.2155
984.834	10.59243
985.001	-4.2066
985.167	98.9437
985.334	3.62922
985.5	38.42706
985.666	0.8815
985.833	-0.77814
985.999	36.68825
986.165	56.84067
986.332	112.35847
986.498	59.50118
986.664	50.67705
986.831	43.04523
986.997	44.21323
987.163	30.11234
987.329	39.32359
987.495	-3.2542
987.662	80.53168
987.828	20.65323
987.994	61.12993
988.16	94.74176
988.326	34.35154
988.492	28.42734
988.658	99.7298
988.824	77.41206
988.99	4.25489
989.156	27.14993
989.322	143.41759
989.488	76.40828
989.654	35.08518
989.82	35.27538
989.985	108.89023
990.151	98.07626
990.317	119.80828
990.483	19.91919
990.648	80.39605
990.814	60.7499
990.98	63.98002
991.146	79.39238
991.311	82.34904
991.477	85.46809
991.643	12.33295
991.808	24.51339
991.974	-16.99922
992.139	61.75426
992.305	60.85848
992.47	19.23951
992.636	78.25304
992.801	73.61378
992.967	50.54127
993.132	41.36105
993.298	184.09101
993.463	33.88961
993.628	66.36842
993.794	28.91655
993.959	115.71791
994.124	10.40206
994.29	54.80439
994.455	106.72236
994.62	63.60002
994.785	107.94181
994.95	19.18513
995.116	96.96481
995.281	54.34281
995.446	41.03507
995.611	-15.42022
995.776	41.27955
995.941	96.34129
996.106	48.09714
996.271	34.59609
996.436	79.55514
996.601	98.72685
996.766	35.79163
996.931	67.96962
997.096	41.65986
997.261	20.87072
997.425	99.75691
997.59	42.90941
997.755	63.92573
997.92	60.53274
998.085	34.2972
998.249	27.44891
998.414	1.72489
998.579	4.55412
998.744	58.8768
998.908	91.46109
999.073	112.14172
999.237	72.77266
999.402	40.89924
999.567	36.47089
999.731	45.32686
999.896	-11.25538
1000.06	89.64435
1000.225	42.42047
1000.389	61.45567
1000.553	81.23694
1000.718	86.1461
1000.882	-24.37822
1001.047	40.70908
1001.211	24.62212
1001.375	133.88966
1001.54	24.92112
1001.704	21.00665
1001.868	116.17844
1002.032	138.89765
1002.197	71.0632
1002.361	39.13342
1002.525	51.41024
1002.689	71.85011
1002.853	31.8244
1003.017	22.22998
1003.181	25.54629
1003.345	58.8768
1003.509	94.14531
1003.673	57.70944
1003.837	79.52802
1004.001	43.91444
1004.165	44.10458
1004.329	95.55509
1004.493	58.33385
1004.657	60.64132
1004.821	23.83382
1004.985	59.09398
1005.149	58.84965
1005.312	68.86517
1005.476	46.38612
1005.64	169.03471
1005.804	39.86693
1005.967	94.55198
1006.131	73.12539
1006.295	92.13895
1006.458	71.28028
1006.622	53.1481
1006.785	60.85848
1006.949	102.90107
1007.113	48.06998
1007.276	55.0216
1007.44	59.17542
1007.603	9.72213
1007.767	38.37272
1007.93	32.61246
1008.093	42.96374
1008.257	62.05285
1008.42	-15.96469
1008.584	75.32307
1008.747	48.50451
1008.91	75.91994
1009.073	6.92065
1009.237	47.71692
1009.4	69.95064
1009.563	-2.54673
1009.726	53.44678
1009.889	141.76668
1010.053	82.13204
1010.216	43.77863
1010.379	83.65094
1010.542	119.9708
1010.705	85.68505
1010.868	90.72898
1011.031	80.36893
1011.194	53.664
1011.357	57.3565
1011.52	20.8979
1011.683	26.95968
1011.846	78.17165
1012.009	91.32551
1012.171	62.48715
1012.334	71.38882
1012.497	107.10175
1012.66	26.87814
1012.823	45.10957
1012.985	116.34098
1013.148	71.17174
1013.311	57.32936
1013.473	43.69714
1013.636	15.43297
1013.799	101.49166
1013.961	79.52802
1014.124	69.97777
1014.286	74.12929
1014.449	-0.53327
1014.612	92.65411
1014.774	14.2909
1014.936	58.79536
1015.099	5.5334
1015.261	7.11105
1015.424	48.47735
1015.586	66.44984
1015.748	45.76143
1015.911	10.0757
1016.073	190.4679
1016.235	74.80758
1016.398	58.55103
1016.56	102.25058
1016.722	14.42686
1016.884	30.03081
1017.047	93.92841
1017.209	65.71706
1017.371	-0.88698
1017.533	30.22104
1017.695	113.19837
1017.857	83.75943
1018.019	113.57767
1018.181	95.09421
1018.343	45.89723
1018.505	49.94384
1018.667	-9.24125
1018.829	35.46558
1018.991	90.64764
1019.153	66.4227
1019.315	-13.29688
1019.477	23.39889
1019.638	25.2473
1019.8	10.64683
1019.962	92.70833
1020.124	26.25299
1020.285	53.664
1020.447	68.72948
1020.609	54.66863
1020.77	14.86194
1020.932	158.623
1021.094	15.81365
1021.255	25.49193
1021.417	134.26868
1021.578	13.96459
1021.74	64.19715
1021.901	52.44211
1022.063	61.2928
1022.224	88.45119
1022.386	62.7043
1022.547	82.48465
1022.709	66.77552
1022.87	110.57022
1023.031	49.07482
1023.193	31.68853
1023.354	76.48967
1023.515	66.25986
1023.676	71.44309
1023.838	61.15708
1023.999	59.98982
1024.16	86.95968
1024.321	94.25375
1024.482	79.311
1024.644	133.48357
1024.805	95.66353
1024.966	32.31355
1025.127	10.81001
1025.288	59.96267
1025.449	123.51888
1025.61	56.46058
1025.771	86.52577
1025.932	114.20079
1026.093	99.62138
1026.253	54.09844
1026.414	-46.82754
1026.575	20.59886
1026.736	15.92241
1026.897	27.85659
1027.058	92.38297
1027.218	55.61892
1027.379	-13.26966
1027.54	64.87569
1027.7	41.82285
1027.861	89.83416
1028.022	51.32878
1028.182	53.96268
1028.343	70.27627
1028.504	26.14427
1028.664	45.40834
1028.825	61.5914
1028.985	55.32026
1029.146	28.78066
1029.306	30.87327
1029.466	113.76732
1029.627	115.41991
1029.787	39.32359
1029.948	43.91444
1030.108	54.12559
1030.268	103.145
1030.429	18.83169
1030.589	61.42853
1030.749	53.41963
1030.909	52.98518
1031.07	79.55514
1031.23	44.81079
1031.39	10.0757
1031.55	89.59011
1031.71	-0.37002
1031.87	59.55547
1032.03	94.44354
1032.19	54.83154
1032.35	58.65962
1032.51	94.30798
1032.67	3.32997
1032.83	50.7042
1032.99	52.84941
1033.15	101.32903
1033.31	88.72237
1033.47	-2.30185
1033.63	68.83803
1033.79	53.31102
1033.949	20.54448
1034.109	64.87569
1034.269	45.81575
1034.429	122.81472
1034.588	76.46254
1034.748	43.04523
1034.908	60.85848
1035.067	67.72538
1035.227	40.02993
1035.387	64.95712
1035.546	109.56766
1035.706	17.93447
1035.865	89.15624
1036.025	58.3067
1036.184	45.16389
1036.344	61.45567
1036.503	87.99019
1036.662	17.68977
1036.822	73.45098
1036.981	57.3565
1037.14	65.66278
1037.3	32.0418
1037.459	56.29768
1037.618	90.70187
1037.778	90.56629
1037.937	67.15547
1038.096	57.70944
1038.255	55.42886
1038.414	30.19387
1038.573	138.81644
1038.733	72.04004
1038.892	79.82641
1039.051	106.23457
1039.21	123.70846
1039.369	30.16669
1039.528	77.81899
1039.687	80.20617
1039.846	87.4207
1040.005	29.59598
1040.164	75.56725
1040.322	28.53605
1040.481	64.08858
1040.64	61.18422
1040.799	6.15904
1040.958	118.69771
1041.116	76.21837
1041.275	45.51698
1041.434	72.14858
1041.593	-13.46021
1041.751	41.57837
1041.91	96.61238
1042.069	20.59886
1042.227	53.58254
1042.386	129.96385
1042.544	35.00366
1042.703	66.09702
1042.861	52.08911
1043.02	23.77946
1043.178	81.50819
1043.337	131.04689
1043.495	101.92533
1043.653	31.71571
1043.812	7.02945
1043.97	68.81089
1044.129	36.57957
1044.287	81.9693
1044.445	76.48967
1044.603	-19.72185
1044.762	2.16018
1044.92	107.67083
1045.078	52.84941
1045.236	39.59526
1045.394	53.52824
1045.552	124.14178
