Data from deut_80ms_50_SR4014911__0__16-30-02-227.txt Node

Date: Sun Jul 13 16:30:02 EDT 2025
User: cryst
Spectrometer: SR401491
Trigger mode: 0
Integration Time (sec): 8.000000E-2
Scans to average: 50
Electric dark correction enabled: true
Nonlinearity correction enabled: true
Boxcar width: 0
XAxis mode: Wavelengths
Number of Pixels in Spectrum: 3648
>>>>>Begin Spectral Data<<<<<
344.912	-122.92878
345.129	-148.63847
345.347	-138.13263
345.565	-112.32428
345.783	55.28297
346.001	41.00862
346.219	21.18136
346.437	38.0746
346.654	88.77733
346.872	38.33541
347.09	-5.14741
347.308	70.28785
347.526	42.09522
347.743	14.98231
347.961	115.1443
348.179	69.54974
348.397	66.0109
348.614	112.41338
348.832	118.7201
349.05	131.82737
349.268	141.7674
349.485	131.80571
349.703	99.83895
349.921	169.83575
350.138	142.28704
350.356	149.3229
350.574	74.9114
350.791	122.7071
351.009	158.13143
351.227	133.4518
351.444	109.68219
351.662	128.38325
351.879	108.03467
352.097	124.67872
352.314	111.13452
352.532	140.55487
352.75	129.16309
352.967	138.71431
353.185	147.82928
353.402	112.76018
353.62	88.21328
353.837	150.01556
354.055	131.28587
354.272	161.29057
354.49	183.78366
354.707	174.68047
354.925	107.86124
355.142	129.07644
355.359	160.3169
355.577	161.78821
355.794	146.7469
356.012	196.08233
356.229	147.91587
356.446	117.22482
356.664	151.94194
356.881	184.95108
357.099	135.96407
357.316	143.91086
357.533	138.06467
357.751	130.28948
357.968	243.54081
358.185	184.38899
358.402	135.20608
358.62	190.83066
358.837	173.92354
359.054	114.14733
359.272	114.92757
359.489	130.18118
359.706	147.30974
359.923	166.39636
360.141	140.55487
360.358	151.01124
360.575	168.90565
360.792	143.30465
361.009	150.90301
361.226	137.89143
361.444	203.73116
361.661	157.52553
361.878	160.55491
362.095	150.9463
362.312	183.87014
362.529	182.7243
362.746	167.0886
362.963	113.15032
363.181	132.39052
363.398	145.23149
363.615	208.28922
363.832	106.66888
364.049	106.53881
364.266	211.74508
364.483	156.91961
364.7	135.57425
364.917	87.23702
365.134	160.57655
365.351	141.37766
365.568	155.36148
365.785	111.45966
366.002	111.50301
366.219	112.0449
366.436	155.85923
366.652	194.69927
366.869	135.76916
367.086	181.49192
367.303	112.93358
367.52	133.84165
367.737	192.62455
367.954	171.69588
368.171	142.02722
368.387	221.44083
368.604	155.96743
368.821	141.87566
369.038	128.53489
369.255	156.22712
369.471	105.21631
369.688	194.69927
369.905	189.18796
370.122	153.86819
370.339	171.63099
370.555	118.22168
370.772	128.03665
370.989	239.1826
371.205	130.44111
371.422	145.12325
371.639	132.88868
371.855	218.67712
372.072	144.47376
372.289	121.36372
372.505	203.75276
372.722	120.08528
372.939	148.88997
373.155	179.58921
373.372	126.19526
373.589	150.29695
373.805	139.14739
374.022	111.82815
374.238	102.24588
374.455	166.37473
374.671	181.51354
374.888	156.03235
375.104	101.61707
375.321	98.99322
375.537	144.12736
375.754	150.53505
375.97	140.03519
376.187	214.44467
376.403	140.94461
376.62	139.53716
376.836	137.28508
377.053	137.80481
377.269	130.50609
377.486	124.83038
377.702	91.33708
377.918	86.73803
378.135	154.40925
378.351	174.33444
378.568	140.98792
378.784	138.45445
379	161.83148
379.217	124.91704
379.433	118.41672
379.649	189.18796
379.865	124.13708
380.082	186.55079
380.298	108.57662
380.514	209.65001
380.731	163.6056
380.947	112.84688
381.163	164.1681
381.379	129.37971
381.596	145.55623
381.812	179.09188
382.028	167.78082
382.244	137.06853
382.46	110.87441
382.676	208.28922
382.893	152.50468
383.109	144.9717
383.325	123.22711
383.541	174.20468
383.757	78.42738
383.973	176.88626
384.189	188.60434
384.405	140.83635
384.622	143.283
384.838	168.84075
385.054	174.26956
385.27	206.2155
385.486	137.04687
385.702	109.29199
385.918	165.37961
386.134	149.66923
386.35	182.44323
386.566	185.01593
386.782	186.76696
386.998	184.10795
387.214	158.08815
387.43	176.02127
387.646	221.74309
387.861	195.82301
388.077	169.9439
388.293	168.92728
388.509	172.15007
388.725	160.61982
388.941	179.43785
389.157	141.09618
389.373	183.67556
389.588	176.06452
389.804	182.11893
390.02	206.60433
390.236	126.47689
390.452	139.49385
390.668	154.21447
390.883	217.64066
391.099	176.38889
391.315	185.55638
391.531	128.20995
391.746	148.69515
391.962	175.54551
392.178	158.69404
392.393	147.98081
392.609	226.2119
392.825	152.13674
393.041	128.88149
393.256	191.47906
393.472	188.60434
393.687	176.17264
393.903	207.31718
394.119	174.4642
394.334	182.98373
394.55	210.25479
394.766	146.57371
394.981	194.54799
395.197	203.16945
395.412	238.79421
395.628	212.45779
395.843	222.75781
396.059	294.71106
396.274	204.44408
396.49	273.25389
396.705	205.82666
396.921	122.96711
397.136	182.33513
397.352	187.93425
397.567	175.19949
397.783	152.22331
397.998	170.03042
398.214	169.90064
398.429	138.86589
398.644	242.28951
398.86	168.99217
399.075	199.45325
399.29	150.18872
399.506	152.2666
399.721	173.94516
399.936	173.53425
400.152	169.59782
400.367	176.23752
400.582	189.07988
400.798	216.97126
401.013	129.74795
401.228	196.34164
401.444	197.44371
401.659	184.8646
401.874	234.24105
402.089	193.46742
402.304	194.69927
402.52	178.3567
402.735	156.20548
402.95	138.77927
403.165	198.97789
403.38	228.54318
403.596	164.49262
403.811	213.45125
404.026	239.39837
404.241	161.93966
404.456	170.22509
404.671	241.81486
404.886	205.3514
405.101	163.2378
405.316	190.5929
405.532	234.43528
405.747	192.97034
405.962	200.98732
406.177	193.59709
406.392	167.95388
406.607	223.53502
406.822	197.09797
407.037	233.39939
407.252	293.54812
407.467	274.43919
407.682	263.05831
407.896	293.95731
408.111	277.67157
408.326	295.68013
408.541	394.48712
408.756	415.79212
408.971	431.05898
409.186	432.81675
409.401	391.76122
409.616	232.32031
409.83	179.78381
410.045	164.49262
410.26	158.04488
410.475	151.61728
410.69	178.05397
410.905	192.79745
411.119	117.20315
411.334	163.93012
411.549	160.42509
411.764	212.63057
411.978	220.12378
412.193	176.86464
412.408	145.51293
412.623	130.98263
412.837	225.13254
413.052	207.7492
413.267	211.91786
413.481	161.68003
413.696	154.88537
413.911	145.88096
414.125	152.41811
414.34	144.75521
414.554	157.8934
414.769	205.02736
414.984	160.27363
415.198	132.2389
415.413	138.56273
415.627	192.73261
415.842	167.17513
416.056	210.94595
416.271	149.92898
416.485	181.42706
416.7	190.39837
416.914	168.08366
417.129	141.35601
417.343	190.03093
417.558	165.94207
417.772	202.17563
417.987	162.95655
418.201	153.88983
418.415	120.88702
418.63	186.55079
418.844	162.28584
419.059	199.45325
419.273	176.43214
419.487	239.37679
419.702	182.16217
419.916	256.61145
420.13	158.99699
420.345	143.97581
420.559	150.72985
420.773	157.50389
420.988	170.00879
421.202	231.21959
421.416	155.55625
421.63	175.459
421.845	180.41085
422.059	166.85065
422.273	134.51305
422.487	174.20468
422.701	231.19801
422.916	236.09693
423.13	164.14647
423.344	155.70774
423.558	156.33532
423.772	150.10214
423.986	169.12195
424.201	158.73732
424.415	245.6118
424.629	208.09481
424.843	192.66777
425.057	202.56452
425.271	128.16663
425.485	130.91764
425.699	131.35085
425.913	214.76861
426.127	180.34598
426.341	155.66446
426.555	144.66861
426.769	204.42247
426.983	212.82494
427.197	200.38235
427.411	195.32597
427.625	233.83101
427.839	176.36727
428.053	174.26956
428.267	140.35999
428.481	203.25587
428.695	137.39336
428.908	135.92076
429.122	199.71254
429.336	187.04798
429.55	158.32618
429.764	221.0522
429.978	264.35181
430.191	269.50371
430.405	373.98316
430.619	342.3515
430.833	488.02795
431.047	598.1797
431.26	871.03477
431.474	1064.52206
431.688	1174.68271
431.901	1250.64843
432.115	1509.33528
432.329	1713.25661
432.543	1864.7212
432.756	2275.01982
432.97	2343.66976
433.184	1612.80726
433.397	677.55272
433.611	269.07263
433.824	231.65125
434.038	201.6571
434.252	187.35061
434.465	181.68651
434.679	161.93966
434.892	200.68484
435.106	115.70779
435.319	161.37712
435.533	216.73373
435.747	178.03234
435.96	123.18377
436.174	229.40657
436.387	217.14401
436.601	195.32597
436.814	214.83339
437.027	144.47376
437.241	205.02736
437.454	149.38783
437.668	220.66356
437.881	225.26207
438.095	185.66447
438.308	201.37623
438.521	244.89992
438.735	190.11739
438.948	188.71242
439.161	183.58909
439.375	164.23301
439.588	226.90267
439.801	205.76185
440.015	183.07021
440.228	234.08999
440.441	257.06429
440.654	269.71925
440.868	256.56833
441.081	153.60848
441.294	230.42101
441.507	212.24182
441.721	184.15118
441.934	206.2803
442.147	161.09584
442.36	170.63605
442.573	214.98456
442.786	152.95919
443	220.62038
443.213	176.45377
443.426	187.91264
443.639	250.40041
443.852	191.91133
444.065	244.40374
444.278	220.36129
444.491	213.25688
444.704	198.86985
444.917	211.93946
445.13	209.45562
445.343	187.89102
445.556	278.55503
445.769	287.38811
445.982	231.93182
446.195	260.12614
446.408	222.58509
446.621	259.39305
446.834	195.52047
447.047	206.51792
447.26	189.8364
447.473	210.47078
447.686	210.64357
447.899	205.02736
448.111	233.6152
448.324	228.26257
448.537	216.06431
448.75	209.43402
448.963	187.1993
449.176	247.20809
449.388	234.00366
449.601	223.88044
449.814	190.24708
450.027	196.75222
450.239	222.26125
450.452	204.6169
450.665	179.80543
450.878	210.57877
451.09	214.40148
451.303	205.3082
451.516	197.94071
451.728	233.52888
451.941	156.65993
452.154	249.25725
452.366	245.20193
452.579	172.7124
452.792	267.11111
453.004	233.67995
453.217	190.2903
453.429	203.60153
453.642	194.20221
453.854	242.97989
454.067	289.02516
454.28	291.20058
454.492	149.43113
454.705	180.32436
454.917	193.68354
455.13	282.88573
455.342	255.64107
455.555	160.29526
455.767	280.30032
455.979	210.49238
456.192	239.76517
456.404	180.82166
456.617	226.77315
456.829	196.75222
457.041	240.69294
457.254	212.24182
457.466	181.90272
457.679	212.28502
457.891	243.10933
458.103	229.88142
458.315	210.0172
458.528	184.38899
458.74	192.17068
458.952	212.88974
459.165	205.52422
459.377	174.22631
459.589	149.3229
459.801	223.98838
460.014	220.90106
460.226	212.3714
460.438	220.0806
460.65	159.66777
460.862	228.58635
461.075	202.67254
461.287	180.62707
461.499	143.84591
461.711	130.41945
461.923	191.78165
462.135	218.76349
462.347	179.22162
462.559	200.53359
462.771	217.94296
462.983	188.25849
463.196	214.2935
463.408	229.4929
463.62	187.56678
463.832	248.5886
464.044	221.67832
464.256	235.34164
464.468	172.58264
464.68	214.66063
464.891	225.39159
465.103	172.88543
465.315	241.70699
465.527	182.96212
465.739	150.3186
465.951	191.04679
466.163	198.37287
466.375	173.05845
466.587	225.08937
466.799	165.98534
467.01	182.81078
467.222	191.78165
467.434	150.36189
467.646	171.04701
467.858	178.6378
468.069	196.23359
468.281	144.19231
468.493	146.0325
468.705	161.22566
468.916	187.37223
469.128	127.27845
469.34	164.44935
469.551	144.82016
469.763	109.48709
469.975	152.7644
470.186	159.66777
470.398	153.63012
470.61	135.14111
470.821	125.15536
471.033	173.49099
471.245	207.92201
471.456	145.85932
471.668	181.0595
471.879	157.24421
472.091	208.05161
472.302	224.22585
472.514	212.00425
472.725	165.94207
472.937	144.25726
473.148	144.86346
473.36	178.09721
473.571	187.17768
473.783	148.21893
473.994	190.67936
474.206	159.94906
474.417	156.78977
474.629	184.73489
474.84	211.80987
475.051	231.99657
475.263	150.96795
475.474	157.20093
475.685	172.10682
475.897	164.36281
476.108	223.51343
476.319	145.49128
476.531	155.25327
476.742	212.30661
476.953	207.55479
477.165	272.37027
477.376	174.03167
477.587	166.52616
477.798	193.57548
478.01	147.15821
478.221	219.2817
478.432	189.55541
478.643	183.78366
478.854	157.26585
479.065	289.24056
479.277	226.92426
479.488	217.07923
479.699	230.4426
479.91	201.44105
480.121	238.039
480.332	226.16873
480.543	234.17631
480.754	168.60281
480.965	182.59457
481.176	202.91019
481.387	275.60289
481.598	231.60809
481.809	268.33977
482.02	404.6373
482.231	824.28014
482.442	1817.0407
482.653	3744.85929
482.864	5944.85009
483.075	9049.28207
483.286	12638.36823
483.497	16932.23375
483.708	20192.26139
483.919	23078.56516
484.13	25602.02264
484.341	29252.78267
484.551	34321.56013
484.762	38938.58204
484.973	40433.14652
485.184	27735.38991
485.395	9222.59416
485.605	2745.79614
485.816	1157.39011
486.027	576.93523
486.238	404.29401
486.449	459.68517
486.659	337.87908
486.87	304.72328
487.081	318.17516
487.291	285.14778
487.502	269.1804
487.713	226.16873
487.923	268.01644
488.134	217.98615
488.345	330.84655
488.555	265.36502
488.766	203.34228
488.976	271.20644
489.187	238.14689
489.398	234.67266
489.608	266.98177
489.819	218.65553
490.029	206.75554
490.24	284.22144
490.45	262.0019
490.661	253.54923
490.871	226.98902
491.082	188.43142
491.292	203.86078
491.503	232.57929
491.713	253.03164
491.924	234.15473
492.134	230.87427
492.344	222.26125
492.555	244.98621
492.765	250.50825
492.975	246.71196
493.186	269.95635
493.396	277.3268
493.607	172.56101
493.817	271.37886
494.027	229.3634
494.237	213.1057
494.448	214.66063
494.658	245.26665
494.868	185.72933
495.078	242.67785
495.289	274.11593
495.499	222.49874
495.709	183.80528
495.919	228.50001
496.129	212.54418
496.34	182.68105
496.55	165.76901
496.76	242.93674
496.97	227.59342
497.18	216.90648
497.39	190.61452
497.6	242.52683
497.81	273.01682
498.021	256.82709
498.231	264.24402
498.441	225.15413
498.651	208.54842
498.861	174.22631
499.071	223.40548
499.281	263.83442
499.491	232.25556
499.701	246.97081
499.911	231.50017
500.121	228.88854
500.331	244.23116
500.54	305.15383
500.75	236.07535
500.96	241.53439
501.17	189.44734
501.38	223.96679
501.59	258.09932
501.8	206.30191
502.01	141.96227
502.219	212.28502
502.429	265.96862
502.639	282.84264
502.849	254.02368
503.059	212.50099
503.268	223.81567
503.478	214.94137
503.688	235.55744
503.898	205.74025
504.107	214.2935
504.317	295.09869
504.527	242.41896
504.736	242.89359
504.946	219.73513
505.156	259.73803
505.365	208.07321
505.575	201.48426
505.785	219.21693
505.994	248.48075
506.204	210.62197
506.413	227.24805
506.623	162.99982
506.832	226.51412
507.042	241.46966
507.251	247.61794
507.461	218.50438
507.67	227.57184
507.88	178.52968
508.089	221.16015
508.299	234.69424
508.508	219.75672
508.718	152.43975
508.927	196.57935
509.137	258.01307
509.346	257.92681
509.555	182.39999
509.765	185.25373
509.974	372.13604
510.184	240.36931
510.393	188.88534
510.602	204.31446
510.812	258.59525
511.021	213.47285
511.23	295.14176
511.439	194.26704
511.649	198.74021
511.858	234.50002
512.067	230.5721
512.276	239.00998
512.486	432.58096
512.695	220.27492
512.904	166.87228
513.113	217.14401
513.322	219.67036
513.531	241.27549
513.741	257.25836
513.95	179.58921
514.159	240.23985
514.368	173.75052
514.577	210.96754
514.786	185.77256
514.995	200.38235
515.204	209.15322
515.413	164.14647
515.622	201.89476
515.831	210.42758
516.04	205.91307
516.249	158.19635
516.458	186.24815
516.667	216.453
516.876	263.38169
517.085	196.81705
517.294	239.1826
517.503	205.3514
517.712	210.64357
517.921	226.10397
518.13	228.3705
518.339	237.0464
518.547	323.29601
518.756	172.21496
518.965	209.06682
519.174	215.20051
519.383	219.8215
519.591	162.45893
519.8	160.98765
520.009	217.33835
520.218	215.33008
520.426	210.51397
520.635	241.59911
520.844	228.47843
521.053	251.32783
521.261	269.6977
521.47	239.76517
521.679	217.77022
521.887	236.65798
522.096	200.31753
522.304	189.10149
522.513	163.56233
522.722	183.00535
522.93	251.86702
523.139	217.46791
523.347	186.39947
523.556	169.5113
523.764	190.2903
523.973	193.83482
524.182	169.12195
524.39	238.66475
524.598	173.75052
524.807	159.40811
525.015	221.85104
525.224	224.39856
525.432	197.78945
525.641	168.60281
525.849	196.53613
526.057	217.42473
526.266	245.13721
526.474	134.77294
526.683	166.56942
526.891	235.3848
527.099	201.50586
527.308	207.98681
527.516	164.9902
527.724	216.02112
527.932	176.62677
528.141	238.79421
528.349	271.96078
528.557	201.20338
528.765	190.72259
528.974	176.28077
529.182	163.75704
529.39	203.73116
529.598	163.62724
529.806	156.83305
530.015	216.453
530.223	180.54058
530.431	169.53293
530.639	153.47862
530.847	153.26219
531.055	214.66063
531.263	206.45312
531.471	144.86346
531.679	139.49385
531.887	205.89147
532.095	210.18999
532.303	237.13272
532.511	195.08826
532.719	187.71809
532.927	186.48594
533.135	215.86995
533.343	248.09249
533.551	225.75858
533.759	172.8638
533.967	238.75106
534.175	217.48951
534.383	249.71021
534.591	250.85334
534.798	239.22575
535.006	160.20871
535.214	189.92286
535.422	170.85235
535.63	231.86708
535.837	149.88569
536.045	157.85012
536.253	186.52917
536.461	213.1273
536.668	192.84067
536.876	232.49296
537.084	241.08131
537.292	214.16393
537.499	245.48237
537.707	218.1373
537.915	224.72238
538.122	260.03989
538.33	254.17464
538.538	222.08853
538.745	219.88627
538.953	257.27992
539.16	229.51449
539.368	188.1288
539.575	191.39261
539.783	207.44679
539.99	282.34712
540.198	209.9308
540.406	209.9956
540.613	194.48316
540.82	193.53225
541.028	244.89992
541.235	197.1844
541.443	264.28714
541.65	293.20354
541.858	240.26143
542.065	198.32966
542.272	215.86995
542.48	294.30188
542.687	202.86699
542.895	253.39827
543.102	209.30442
543.309	240.41246
543.516	238.57844
543.724	207.36038
543.931	202.54291
544.138	249.34353
544.346	201.09535
544.553	217.07923
544.76	225.13254
544.967	197.20601
545.174	229.19072
545.382	204.63851
545.589	240.15354
545.796	252.75127
546.003	183.04859
546.21	228.75903
546.417	291.13596
546.624	222.73622
546.832	213.40806
547.039	207.01476
547.246	257.819
547.453	223.01688
547.66	180.30274
547.867	240.56349
548.074	214.20712
548.281	188.84211
548.488	211.26992
548.695	179.89192
548.902	216.71213
549.109	193.03518
549.316	171.97705
549.523	181.773
549.73	189.81479
549.936	222.3692
550.143	189.96609
550.35	172.15007
550.557	179.07026
550.764	159.92742
550.971	218.39642
551.178	183.39451
551.384	236.2264
551.591	241.49124
551.798	255.94297
552.005	200.9225
552.211	236.24798
552.418	208.93722
552.625	154.27939
552.832	238.29793
553.038	233.70153
553.245	242.82887
553.452	242.97989
553.658	189.33926
553.865	196.29842
554.072	215.28689
554.278	216.69054
554.485	292.21285
554.691	277.3699
554.898	193.85643
555.105	248.99842
555.311	186.05359
555.518	266.27041
555.724	245.18036
555.931	160.3169
556.137	171.02538
556.344	216.69054
556.55	219.26011
556.757	223.29754
556.963	197.20601
557.17	238.88052
557.376	244.23116
557.582	279.56774
557.789	201.70031
557.995	208.61322
558.202	189.66348
558.408	229.66558
558.614	184.34575
558.821	228.65111
559.027	230.26993
559.233	229.7735
559.439	302.33358
559.646	235.6006
559.852	260.47111
560.058	237.3485
560.264	251.80232
560.471	230.42101
560.677	266.24886
560.883	263.44636
561.089	270.43053
561.295	209.23962
561.502	238.40582
561.708	218.09412
561.914	221.16015
562.12	226.81633
562.326	253.48453
562.532	245.35294
562.738	261.13949
562.944	203.25587
563.15	230.18359
563.356	182.39999
563.562	228.5216
563.768	235.0611
563.974	181.79462
564.18	250.52982
564.386	233.24832
564.592	197.03314
564.798	198.58895
565.004	286.87112
565.21	180.88653
565.416	260.19082
565.622	241.42651
565.828	256.46051
566.034	275.92613
566.239	226.27666
566.445	299.72836
566.651	289.24056
566.857	319.81048
567.063	272.49958
567.268	319.29407
567.474	334.65336
567.68	313.48384
567.886	362.94169
568.091	370.7184
568.297	330.2443
568.503	364.63899
568.708	365.73467
568.914	394.22956
569.12	399.14418
569.325	379.33057
569.531	388.434
569.737	303.49616
569.942	345.57638
570.148	408.24161
570.353	459.57809
570.559	450.81734
570.765	419.07343
570.97	412.08145
571.176	502.31795
571.381	377.48378
571.587	329.19033
571.792	341.44847
571.998	370.2888
572.203	359.13852
572.408	476.81383
572.614	540.74874
572.819	476.23589
573.025	429.72987
573.23	439.09673
573.435	387.16742
573.641	436.33199
573.846	376.79657
574.051	432.21655
574.257	470.56297
574.462	461.41988
574.667	436.13909
574.873	414.05481
575.078	481.50114
575.283	459.55667
575.488	497.50544
575.694	532.50226
575.899	422.69747
576.104	468.78595
576.309	505.16233
576.514	519.9575
576.719	637.94353
576.925	722.93553
577.13	637.24074
577.335	581.45833
577.54	530.60057
577.745	424.8631
577.95	470.54156
578.155	447.51803
578.36	403.58596
578.565	436.41772
578.77	552.34571
578.975	597.81721
579.18	499.32358
579.385	555.12152
579.59	635.94159
579.795	509.05422
580	412.85365
580.205	440.96119
580.41	647.03594
580.615	994.24364
580.82	1029.91518
581.024	854.99828
581.229	793.23821
581.434	744.78669
581.639	576.01774
581.844	481.30853
582.049	423.53372
582.253	506.38127
582.458	445.22544
582.663	349.66072
582.868	351.83164
583.072	361.80294
583.277	481.24432
583.482	547.96798
583.686	547.73306
583.891	523.56971
584.096	555.93287
584.3	619.49542
584.505	504.34968
584.71	539.12525
584.914	556.89364
585.119	522.94989
585.323	498.12576
585.528	390.10839
585.733	415.32027
585.937	471.71905
586.142	340.60992
586.346	523.27049
586.551	471.8475
586.755	495.06681
586.959	622.7981
587.164	599.48036
587.368	478.89003
587.573	589.47885
587.777	846.046
587.982	3008.88626
588.186	6801.00645
588.39	3122.27116
588.595	1930.65078
588.799	3863.06228
589.003	1685.07863
589.208	604.36271
589.412	504.39245
589.616	447.68943
589.82	463.81833
590.025	356.55983
590.229	375.91607
590.433	357.18303
590.637	340.09387
590.842	451.33149
591.046	488.56288
591.25	442.26838
591.454	313.26863
591.658	378.08507
591.862	548.43782
592.067	840.41527
592.271	690.69563
592.475	552.62331
592.679	577.66068
592.883	504.94848
593.087	549.71915
593.291	469.79223
593.495	401.18276
593.699	383.38881
593.903	505.52588
594.107	653.59284
594.311	639.2426
594.515	566.09428
594.719	507.89954
594.923	464.78194
595.127	524.42461
595.33	481.39413
595.534	368.67775
595.738	494.51061
595.942	470.43451
596.146	369.53699
596.35	464.22519
596.553	408.5205
596.757	450.62454
596.961	599.50169
597.165	455.91559
597.369	356.73175
597.572	377.3764
597.776	365.04719
597.98	525.06577
598.183	606.28133
598.387	537.26668
598.591	452.95956
598.794	431.33766
598.998	463.24015
599.202	516.58003
599.405	577.12727
599.609	505.18372
599.812	581.50099
600.016	567.6737
600.22	615.63831
600.423	602.97696
600.627	561.18476
600.83	437.66081
601.034	567.54564
601.237	638.26298
601.441	396.07532
601.644	455.31584
601.847	571.6646
602.051	489.99643
602.254	476.2787
602.458	537.30941
602.661	616.76779
602.864	497.8049
603.068	454.65181
603.271	397.94243
603.475	405.17368
603.678	423.29786
603.881	411.37359
604.084	348.8224
604.288	380.1895
604.491	486.80829
604.694	505.41896
604.897	369.57995
605.101	419.84545
605.304	479.42511
605.507	399.14418
605.71	339.27678
605.913	461.69828
606.116	475.10139
606.32	459.471
606.523	435.06741
606.726	403.30702
606.929	455.03738
607.132	457.9932
607.335	476.23589
607.538	407.7911
607.741	362.25415
607.944	328.15783
608.147	339.90035
608.35	369.98808
608.553	369.53699
608.756	387.59678
608.959	412.93945
609.162	490.06061
609.365	461.61262
609.568	467.45848
609.771	323.66175
609.973	432.1308
610.176	440.12541
610.379	357.56984
610.582	344.82394
610.785	436.07479
610.988	385.72903
611.19	335.72864
611.393	322.6936
611.596	294.60338
611.799	316.10935
612.001	398.80083
612.204	311.46075
612.407	329.14731
612.609	361.05091
612.812	397.14838
613.015	413.96902
613.217	419.22354
613.42	331.06164
613.623	350.90741
613.825	394.61589
614.028	442.5041
614.23	362.68386
614.433	325.81307
614.636	374.64895
614.838	424.7559
615.041	454.05204
615.243	289.84365
615.446	278.7705
615.648	259.34993
615.85	317.74479
616.053	255.49011
616.255	325.92063
616.458	305.97187
616.66	302.31205
616.863	249.34353
617.065	291.09289
617.267	332.73926
617.47	304.68022
617.672	306.66073
617.874	277.413
618.077	263.10142
618.279	297.46745
618.481	339.77134
618.683	239.70044
618.886	234.50002
619.088	363.80109
619.29	352.21852
619.492	265.58059
619.694	254.10994
619.897	327.66308
620.099	247.07867
620.301	195.86623
620.503	186.1833
620.705	241.12446
620.907	234.91004
621.109	214.27191
621.311	290.51136
621.513	293.97884
621.715	302.01063
621.917	309.13618
622.119	323.16692
622.321	285.49245
622.523	299.70683
622.725	232.62245
622.927	242.95831
623.129	251.88859
623.331	249.49452
623.533	210.51397
623.735	260.10458
623.937	286.84958
624.139	247.66108
624.341	259.28524
624.542	207.87881
624.744	185.64285
624.946	276.55106
625.148	226.90267
625.35	255.55481
625.551	206.34511
625.753	173.49099
625.955	225.34842
626.156	247.59637
626.358	253.70019
626.56	215.15732
626.762	301.40778
626.963	259.67335
627.165	223.42707
627.366	236.37746
627.568	244.77048
627.77	240.13197
627.971	273.44785
628.173	242.18164
628.374	219.45444
628.576	231.34909
628.777	309.28685
628.979	186.14006
629.18	189.42572
629.382	171.04701
629.583	247.48851
629.785	246.88453
629.986	179.93517
630.188	225.69382
630.389	201.72192
630.591	244.51161
630.792	177.31875
630.993	149.88569
631.195	180.10814
631.396	185.27535
631.597	185.12402
631.799	199.6045
632	219.36807
632.201	197.27084
632.402	217.03604
632.604	238.96683
632.805	188.56111
633.006	215.09254
633.207	228.13306
633.409	255.85671
633.61	165.87717
633.811	196.73061
634.012	235.42796
634.213	229.44974
634.414	217.01445
634.615	197.68141
634.816	249.79648
635.017	248.32976
635.219	239.63571
635.42	253.61393
635.621	216.02112
635.822	264.33026
636.023	226.64364
636.224	231.80233
636.425	199.12914
636.626	204.05521
636.826	161.98294
637.027	249.21411
637.228	185.27535
637.429	178.20533
637.63	199.06432
637.831	150.79479
638.032	185.16726
638.233	152.74276
638.433	154.36596
638.634	217.64066
638.835	200.70644
639.036	215.13573
639.237	131.52413
639.437	133.99326
639.638	167.52124
639.839	174.31282
640.039	148.58692
640.24	201.98118
640.441	187.56678
640.641	119.7169
640.842	188.17203
641.043	168.12693
641.243	126.75852
641.444	140.59817
641.645	201.13856
641.845	150.53505
642.046	165.22817
642.246	148.17563
642.447	106.66888
642.647	172.3231
642.848	222.80099
643.048	227.09695
643.249	189.07988
643.449	158.56421
643.65	121.0387
643.85	129.11977
644.05	201.18178
644.251	147.41798
644.451	159.90579
644.651	145.27479
644.852	148.82503
645.052	159.01862
645.252	152.35318
645.453	112.78185
645.653	133.66839
645.853	132.2389
646.054	138.49776
646.254	138.64934
646.454	103.87207
646.654	115.07928
646.854	135.27105
647.055	179.71894
647.255	129.70463
647.455	226.90267
647.655	141.35601
647.855	193.33775
648.055	172.73403
648.255	140.38164
648.455	167.99714
648.655	165.20654
648.856	192.51648
649.056	173.23147
649.256	180.67031
649.456	142.69842
649.656	133.40849
649.856	170.13857
650.055	147.6561
650.255	218.15889
650.455	198.95628
650.655	203.25587
650.855	252.44934
651.055	343.64149
651.255	344.88843
651.455	354.38925
651.655	264.80453
651.854	287.45273
652.054	208.26762
652.254	255.77045
652.454	333.08338
652.654	311.05181
652.853	506.70204
653.053	647.82369
653.253	1299.45707
653.452	3726.07846
653.652	13144.07389
653.852	33251.78772
654.051	63363.04072
654.251	63366.48627
654.451	63366.48627
654.65	63366.48627
654.85	63366.48627
655.049	63366.48627
655.249	63366.48627
655.449	63366.48627
655.648	63366.48627
655.848	63366.48627
656.047	63366.48627
656.247	63366.48627
656.446	63366.48627
656.645	63366.48627
656.845	63366.48627
657.044	63366.48627
657.244	63366.48627
657.443	63366.48627
657.643	63366.48627
657.842	63366.48627
658.041	60225.13299
658.241	22718.82649
658.44	3164.62956
658.639	2587.73975
658.839	2141.15664
659.038	1849.17706
659.237	1575.02997
659.436	1417.0402
659.636	1330.32026
659.835	1212.24318
660.034	1119.92486
660.233	1027.97761
660.432	960.98548
660.631	933.75765
660.831	901.73361
661.03	824.02598
661.229	836.73153
661.428	758.349
661.627	722.36198
661.826	720.91746
662.025	667.76659
662.224	592.69929
662.423	596.28192
662.622	548.71544
662.821	559.39153
663.02	588.71101
663.219	494.59618
663.418	560.3095
663.617	532.8014
663.816	518.93147
664.015	435.62469
664.214	432.43091
664.412	427.35018
664.611	451.09584
664.81	434.8102
665.009	488.84103
665.208	415.19158
665.406	354.36776
665.605	423.29786
665.804	380.33981
666.003	401.50463
666.201	325.89912
666.4	327.59855
666.599	366.63696
666.798	338.0081
666.996	351.6382
667.195	292.60051
667.394	288.37897
667.592	364.16633
667.791	308.53348
667.989	341.79248
668.188	318.77766
668.386	379.3091
668.585	291.93286
668.783	332.5457
668.982	346.52227
669.18	354.32478
669.379	303.34546
669.577	257.21523
669.776	256.39581
669.974	318.28275
670.173	291.54518
670.371	266.70154
670.57	260.36331
670.768	295.2279
670.966	303.25934
671.165	312.38623
671.363	272.56424
671.561	295.52939
671.76	347.68311
671.958	351.65969
672.156	309.60972
672.354	249.53765
672.553	254.45499
672.751	202.86699
672.949	230.3131
673.147	277.97325
673.345	220.53401
673.543	282.34712
673.742	192.25713
673.94	213.49444
674.138	240.62822
674.336	236.11851
674.534	206.77715
674.732	282.95036
674.93	247.14338
675.128	188.21526
675.326	216.56097
675.524	196.42808
675.722	250.52982
675.92	188.90696
676.118	189.66348
676.316	227.76611
676.514	223.64296
676.712	172.40961
676.91	218.26686
677.108	217.835
677.305	256.61145
677.503	222.54192
677.701	219.73513
677.899	181.49192
678.097	212.65217
678.295	197.87588
678.492	176.86464
678.69	248.67488
678.888	187.76132
679.085	261.5707
679.283	181.773
679.481	156.29204
679.679	178.20533
679.876	175.76176
680.074	203.70955
680.271	172.8638
680.469	187.76132
680.667	235.29848
680.864	202.046
681.062	208.91562
681.259	206.02108
681.457	144.79851
681.654	202.91019
681.852	140.27338
682.049	173.27472
682.247	156.68157
682.444	155.08014
682.642	187.71809
682.839	149.30125
683.037	184.30252
683.234	231.17643
683.431	181.01626
683.629	138.32453
683.826	148.21893
684.023	183.65394
684.221	229.96775
684.418	219.60558
684.615	241.72856
684.813	242.00904
685.01	229.03963
685.207	164.9902
685.404	122.90211
685.601	223.81567
685.799	233.09725
685.996	162.58874
686.193	160.18708
686.39	135.18443
686.587	196.90349
686.784	191.91133
686.981	196.709
687.179	194.13738
687.376	122.4471
687.573	149.51771
687.77	186.33462
687.967	148.45704
688.164	162.24257
688.361	143.19639
688.558	170.22509
688.755	150.12379
688.952	234.02524
689.148	170.54954
689.345	141.61584
689.542	157.41733
689.739	154.95029
689.936	146.92008
690.133	183.43775
690.33	143.95416
690.526	151.07617
690.723	265.75305
690.92	186.26976
691.117	136.85197
691.314	128.59988
691.51	129.48802
691.707	137.80481
691.904	143.86756
692.1	225.2189
692.297	144.01911
692.494	129.72629
692.69	236.09693
692.887	197.1844
693.084	158.08815
693.28	145.12325
693.477	151.61728
693.673	147.59116
693.87	140.55487
694.066	111.35128
694.263	128.18829
694.459	140.01354
694.656	134.88122
694.852	153.58684
695.049	148.56528
695.245	166.72085
695.442	144.12736
695.638	95.71848
695.834	135.81247
696.031	153.88983
696.227	151.98523
696.423	181.3622
696.62	176.36727
696.816	211.22672
697.012	133.75502
697.209	160.49
697.405	187.58839
697.601	206.69074
697.797	147.2015
697.994	118.80678
698.19	126.47689
698.386	179.78381
698.582	175.39413
698.778	115.44772
698.974	112.93358
699.17	114.23403
699.367	144.66861
699.563	188.88534
699.759	97.25831
699.955	130.52775
700.151	146.89844
700.347	128.62154
700.543	138.9092
700.739	220.5772
700.935	124.00709
701.131	127.73337
701.327	116.27127
701.523	180.60545
701.718	125.32868
701.914	150.27531
702.11	165.57431
702.306	169.87901
702.502	145.96756
702.698	100.46781
702.894	126.34691
703.089	118.41672
703.285	119.26185
703.481	136.35388
703.677	154.64731
703.872	100.72802
704.068	120.15029
704.264	96.54262
704.459	68.9853
704.655	92.59518
704.851	101.48696
705.046	57.56356
705.242	75.17186
705.438	56.8251
705.633	101.33518
705.829	92.59518
706.024	141.11783
706.22	168.97054
706.415	147.76434
706.611	149.40948
706.806	174.33444
707.002	123.27044
707.197	137.3284
707.393	135.66088
707.588	89.99216
707.784	137.17681
707.979	99.81726
708.174	67.68268
708.37	106.23529
708.565	118.9368
708.76	120.06361
708.956	122.33876
709.151	110.35417
709.346	96.36912
709.542	97.38843
709.737	95.95705
709.932	160.64146
710.127	142.41695
710.322	103.50348
710.518	98.92816
710.713	77.08181
710.908	56.60791
711.103	119.97694
711.298	140.31668
711.493	88.03973
711.688	86.34751
711.883	98.99322
712.078	157.43897
712.273	147.22315
712.468	87.90956
712.663	107.7962
712.858	121.14704
713.053	110.701
713.248	142.26539
713.443	111.35128
713.638	75.38891
713.833	92.20474
714.028	105.99681
714.223	181.8811
714.418	192.45165
714.613	94.35208
714.807	183.19993
715.002	103.17824
715.197	116.70471
715.392	45.15918
715.587	86.67294
715.781	107.42766
715.976	86.32581
716.171	162.58874
716.365	102.41935
716.56	142.95823
716.755	60.34344
716.949	105.23799
717.144	131.56745
717.339	92.57349
717.533	129.8346
717.728	144.32221
717.922	64.05674
718.117	74.71606
718.312	132.15226
718.506	115.29601
718.701	181.27571
718.895	175.30762
719.089	126.93183
719.284	118.06999
719.478	98.64625
719.673	62.73217
719.867	138.47611
720.062	126.34691
720.256	115.70779
720.45	90.36093
720.645	69.05043
720.839	121.16871
721.033	120.49699
721.228	75.08504
721.422	110.72267
721.616	99.51367
721.81	118.46006
722.005	126.43356
722.199	141.03122
722.393	78.14525
722.587	81.09661
722.781	142.09218
722.975	132.62877
723.169	129.16309
723.364	106.79896
723.558	94.24363
723.752	108.57662
723.946	165.76901
724.14	96.10887
724.334	120.67034
724.528	113.62716
724.722	80.87961
724.916	134.01492
725.11	120.99536
725.304	113.38874
725.498	149.58265
725.692	119.6519
725.885	138.1946
726.079	176.41052
726.273	107.16751
726.467	90.05724
726.661	97.4318
726.855	115.68612
727.048	163.77868
727.242	92.0529
727.436	108.18642
727.63	92.35658
727.823	133.75502
728.017	83.5703
728.211	96.60769
728.405	142.11383
728.598	86.08715
728.792	80.79281
728.986	146.7902
729.179	123.37877
729.373	92.89885
729.566	124.39707
729.76	125.11203
729.953	102.39767
730.147	158.84552
730.34	111.37296
730.534	201.93797
730.727	147.15821
730.921	154.08461
731.114	162.02621
731.308	132.7154
731.501	111.04782
731.695	108.57662
731.888	105.25967
732.081	107.23255
732.275	98.25589
732.468	113.15032
732.661	134.57802
732.855	81.11831
733.048	80.64091
733.241	62.75388
733.434	134.25315
733.628	129.14143
733.821	157.15765
734.014	130.80934
734.207	156.57337
734.4	94.15687
734.594	123.37877
734.787	133.21356
734.98	130.07287
735.173	124.54873
735.366	64.68643
735.559	140.96627
735.752	58.17168
735.945	53.69731
736.138	75.69277
736.331	104.78269
736.524	155.96743
736.717	86.17394
736.91	109.07522
737.103	121.99209
737.296	119.47854
737.489	139.64543
737.682	50.02603
737.875	87.04176
738.067	124.28874
738.26	134.31813
738.453	121.25538
738.646	109.29199
738.839	105.36808
739.031	102.74459
739.224	104.67429
739.417	142.48191
739.61	150.85972
739.802	105.10791
739.995	44.61595
740.188	172.95031
740.38	90.20908
740.573	116.63969
740.765	83.50521
740.958	34.16206
741.151	123.66043
741.343	33.64034
741.536	70.78714
741.728	83.85237
741.921	94.20025
742.113	47.35372
742.306	79.31715
742.498	92.20474
742.691	122.96711
742.883	77.81971
743.076	73.60907
743.268	70.37468
743.46	139.68874
743.653	71.00423
743.845	98.92816
744.037	97.99566
744.23	71.59034
744.422	86.17394
744.614	73.97807
744.807	92.0746
744.999	95.97874
745.191	103.1132
745.383	104.73933
745.575	74.62924
745.768	110.80938
745.96	94.24363
746.152	93.37604
746.344	82.35518
746.536	141.16114
746.728	117.07312
746.92	103.43843
747.112	76.14856
747.304	91.66246
747.496	96.21731
747.688	70.33127
747.88	27.94429
748.072	136.65707
748.264	76.04004
748.456	84.525
748.648	83.39672
748.84	90.33924
749.032	68.31229
749.224	105.08623
749.416	109.48709
749.608	139.66708
749.799	102.28925
749.991	113.23702
750.183	137.5666
750.375	58.25856
750.567	91.77092
750.758	48.11416
750.95	105.86673
751.142	85.04573
751.333	74.58583
751.525	118.20001
751.717	117.59323
751.908	182.27027
752.1	92.20474
752.292	91.72753
752.483	90.90324
752.675	72.58887
752.866	95.52328
753.058	157.09273
753.249	123.50877
753.441	108.29481
753.632	61.79842
753.824	59.99597
754.015	52.93703
754.207	136.61376
754.398	115.31769
754.589	77.81971
754.781	76.66945
754.972	71.87254
755.164	92.46503
755.355	95.76186
755.546	97.86554
755.738	76.77797
755.929	100.6196
756.12	138.4328
756.311	162.8051
756.503	109.20528
756.694	123.27044
756.885	110.46256
757.076	200.72805
757.267	182.85402
757.458	151.11946
757.65	128.18829
757.841	113.10697
758.032	170.41976
758.223	136.09401
758.414	159.27828
758.605	140.57652
758.796	100.64128
758.987	151.16275
759.178	102.57113
759.369	64.03502
759.56	94.85093
759.751	81.9429
759.942	114.16901
760.133	77.03841
760.324	103.43843
760.514	89.94877
760.705	139.38558
760.896	83.02784
761.087	132.26056
761.278	84.54669
761.468	48.41833
761.659	120.58366
761.85	122.5121
762.041	55.5219
762.231	139.32062
762.422	70.09247
762.613	138.1946
762.803	80.1635
762.994	182.98373
763.185	73.0013
763.375	114.73251
763.566	88.25667
763.757	72.58887
763.947	86.58616
764.138	118.80678
764.328	144.21396
764.519	163.1729
764.709	122.4471
764.9	118.39505
765.09	101.27012
765.281	101.35686
765.471	69.74513
765.661	77.19033
765.852	87.736
766.042	106.60385
766.232	36.98784
766.423	64.38244
766.613	82.22499
766.803	64.83842
766.994	110.72267
767.184	85.67493
767.374	161.65839
767.564	164.05993
767.755	104.63092
767.945	49.67843
768.135	75.56254
768.325	139.68874
768.515	116.42297
768.706	100.3377
768.896	124.87371
769.086	124.31041
769.276	105.75833
769.466	76.49582
769.656	96.67275
769.846	103.80702
770.036	112.9119
770.226	98.36433
770.416	85.56645
770.606	104.93446
770.796	178.37832
770.986	113.97394
771.176	78.73121
771.366	117.20315
771.555	118.98014
771.745	60.49546
771.935	103.00478
772.125	73.63078
772.315	77.49417
772.504	123.66043
772.694	63.73103
772.884	126.69353
773.074	56.75995
773.263	103.28665
773.453	95.13289
773.643	138.25956
773.832	127.99333
774.022	127.95
774.212	84.95894
774.401	54.39241
774.591	38.48755
774.781	38.87877
774.97	102.70123
775.16	51.15571
775.349	43.16004
775.539	71.67717
775.728	50.48225
775.918	109.87728
776.107	153.95476
776.297	235.68692
776.486	443.9398
776.675	506.29574
776.865	362.14672
777.054	160.03561
777.243	134.62133
777.433	123.24877
777.622	125.09036
777.811	96.52093
778.001	104.5442
778.19	71.11277
778.379	58.75807
778.568	124.15875
778.758	72.50204
778.947	85.76171
779.136	120.02027
779.325	106.21361
779.514	47.37545
779.703	138.23791
779.892	59.88738
780.082	81.40041
780.271	41.13902
780.46	92.83378
780.649	103.3517
780.838	82.15989
781.027	68.05176
781.216	40.16105
781.405	43.37735
781.594	107.57941
781.783	152.43975
781.971	142.93658
782.16	74.28195
782.349	175.54551
782.538	75.08504
782.727	121.60207
782.916	62.7756
783.105	128.20995
783.293	67.27017
783.482	143.4995
783.671	109.40038
783.86	77.38566
784.048	44.42039
784.237	22.07303
784.426	64.94698
784.614	84.61179
784.803	85.50136
784.992	26.05258
785.18	72.95789
785.369	103.46011
785.557	82.26839
785.746	114.79753
785.935	114.42909
786.123	63.94817
786.312	43.63811
786.5	91.05509
786.689	88.10481
786.877	71.56863
787.065	114.55913
787.254	7.0193
787.442	32.68384
787.631	82.0297
787.819	112.58678
788.007	116.96477
788.196	104.39243
788.384	123.01044
788.572	148.30551
788.761	49.00493
788.949	68.35571
789.137	73.58737
789.325	67.27017
789.513	63.14475
789.702	88.66886
789.89	85.02403
790.078	61.907
790.266	52.35051
790.454	70.26614
790.642	44.52903
790.83	120.08528
791.018	77.97163
791.207	75.15016
791.395	114.81921
791.583	47.87517
791.771	108.70669
791.959	64.18702
792.146	52.54602
792.334	43.81195
792.522	62.31959
792.71	80.51071
792.898	77.7329
793.086	121.5154
793.274	47.50581
793.462	127.19179
793.65	124.35374
793.837	39.63945
794.025	103.80702
794.213	26.44398
794.401	127.30011
794.588	65.40295
794.776	35.44456
794.964	15.85244
795.151	88.21328
795.339	86.26072
795.527	48.46178
795.714	21.00737
795.902	59.58334
796.089	60.99493
796.277	24.13899
796.465	131.39417
796.652	74.36877
796.84	67.70439
797.027	68.72478
797.215	59.25758
797.402	113.71385
797.59	121.08204
797.777	58.12825
797.964	49.28737
798.152	40.16105
798.339	120.25863
798.526	41.70405
798.714	30.20546
798.901	66.35829
799.088	97.34505
799.276	50.4388
799.463	57.4984
799.65	54.97888
799.837	70.50494
800.025	31.24902
800.212	76.409
800.399	74.9114
800.586	55.73911
800.773	42.356
800.96	42.37773
801.148	107.96963
801.335	90.99001
801.522	119.47854
801.709	38.03113
801.896	85.87019
802.083	64.643
802.27	31.66208
802.457	60.45202
802.644	43.79022
802.831	67.33531
803.018	52.82841
803.204	60.64747
803.391	70.76544
803.578	43.50773
803.765	50.17811
803.952	115.88117
804.139	60.21314
804.326	70.96081
804.512	73.37031
804.699	110.67932
804.886	41.465
805.073	37.37908
805.259	64.12188
805.446	181.62165
805.633	96.21731
805.819	103.50348
806.006	110.57094
806.192	83.85237
806.379	31.77078
806.566	27.18327
806.752	88.47361
806.939	56.21695
807.125	23.83455
807.312	76.51752
807.498	79.36056
807.685	103.37338
807.871	45.07227
808.058	86.8465
808.244	87.06346
808.43	95.6751
808.617	102.00737
808.803	85.80511
808.99	53.1977
809.176	71.56863
809.362	51.87259
809.549	69.98393
809.735	77.40736
809.921	18.70191
810.107	74.9114
810.293	52.54602
810.48	91.96614
810.666	89.27628
810.852	76.21367
811.038	55.30469
811.224	59.34445
811.41	71.39497
811.597	112.67348
811.783	10.67475
811.969	41.42154
812.155	13.1767
812.341	69.61487
812.527	73.30519
812.713	73.0013
812.899	50.59088
813.085	62.40645
813.271	76.73456
813.456	107.14583
813.642	25.20453
813.828	36.42271
814.014	130.74436
814.2	60.9515
814.386	60.23486
814.572	7.95497
814.757	73.78272
814.943	143.71601
815.129	92.22643
815.315	70.11418
815.5	70.50494
815.686	109.46541
815.872	37.66163
816.057	26.50921
816.243	120.17196
816.429	60.86463
816.614	51.17743
816.8	35.48804
816.985	68.16031
817.171	72.19815
817.356	99.49199
817.542	78.29717
817.727	97.80048
817.913	12.17595
818.098	63.51389
818.284	35.11851
818.469	55.54362
818.655	37.20519
818.84	90.27416
819.025	34.20553
819.211	106.90736
819.396	108.51159
819.581	51.95949
819.767	49.87395
819.952	69.57145
820.137	99.64378
820.322	103.46011
820.508	162.71856
820.693	83.80898
820.878	55.71739
821.063	80.51071
821.248	106.32201
821.433	35.50977
821.618	90.23078
821.804	47.54926
821.989	32.96645
822.174	82.76746
822.359	119.82525
822.544	13.78584
822.729	96.91131
822.914	19.91992
823.099	38.72663
823.284	36.00972
823.469	58.71464
823.653	76.56093
823.838	67.85637
824.023	57.80247
824.208	26.61793
824.393	92.03121
824.578	69.87538
824.762	6.04008
824.947	43.35562
825.132	79.23035
825.317	50.87329
825.501	71.02593
825.686	68.334
825.871	41.42154
826.056	73.76102
826.24	92.35658
826.425	81.27021
826.609	23.57359
826.794	17.35335
826.979	56.67307
827.163	51.74225
827.348	30.96639
827.532	26.57445
827.717	67.55242
827.901	54.39241
828.086	70.87398
828.27	40.50878
828.455	81.03151
828.639	90.12231
828.823	88.92918
829.008	25.22628
829.192	48.17934
829.376	74.75947
829.561	23.85629
829.745	35.18372
829.929	12.58931
830.114	61.12523
830.298	148.21893
830.482	52.06811
830.666	95.74017
830.85	34.31422
831.035	68.65965
831.219	10.71826
831.403	25.59594
831.587	7.1281
831.771	120.80035
831.955	61.66812
832.139	39.55252
832.323	66.44514
832.507	22.61672
832.691	37.33561
832.875	-4.18955
833.059	18.68016
833.243	7.43274
833.427	37.00957
833.611	54.32724
833.795	26.22654
833.979	70.52664
834.163	33.24905
834.346	91.74922
834.53	55.39158
834.714	90.18739
834.898	46.33252
835.082	55.28297
835.265	65.59837
835.449	35.24893
835.633	15.98296
835.816	57.67215
836	16.06997
836.184	81.9212
836.367	82.57217
836.551	90.23078
836.735	88.82072
836.918	13.95987
837.102	30.33591
837.285	33.83599
837.469	52.58946
837.652	89.75353
837.836	23.35612
838.019	36.18361
838.203	55.0006
838.386	40.7261
838.569	23.4866
838.753	128.57822
838.936	11.39272
839.12	30.68376
839.303	75.43232
839.486	77.38566
839.669	27.63989
839.853	50.67777
840.036	45.72413
840.219	51.39467
840.402	5.30019
840.586	54.892
840.769	55.34814
840.952	18.74542
841.135	87.19363
841.318	35.8793
841.501	23.57359
841.684	9.02116
841.868	80.74941
842.051	56.45587
842.234	71.30814
842.417	50.6995
842.6	54.5879
842.783	61.4944
842.966	51.93777
843.149	165.50941
843.331	52.45912
843.514	213.51604
843.697	217.10082
843.88	238.01742
844.063	143.60775
844.246	99.49199
844.429	58.34543
844.611	78.16695
844.794	63.25332
844.977	66.29316
845.16	67.66097
845.342	71.93766
845.525	59.40961
845.708	-0.14075
845.89	63.18818
846.073	25.94386
846.256	54.45757
846.438	56.41243
846.621	122.83711
846.803	55.21781
846.986	11.28394
847.168	47.96207
847.351	86.8465
847.533	48.85285
847.716	90.57786
847.898	95.82692
848.081	-8.43491
848.263	43.37735
848.446	21.65982
848.628	86.04376
848.81	19.61542
848.993	38.53102
849.175	11.1534
849.357	54.71823
849.539	38.44408
849.722	29.29232
849.904	21.85556
850.086	49.89568
850.268	114.84088
850.451	123.72543
850.633	68.26887
850.815	3.68979
850.997	109.76889
851.179	30.90117
851.361	48.50523
851.543	41.5302
851.725	76.49582
851.907	41.26941
852.089	84.41651
852.271	51.59019
852.453	102.87469
852.635	84.91554
852.817	51.61191
852.999	32.92297
853.181	37.59643
853.363	37.09652
853.545	39.72639
853.727	43.22523
853.908	42.50811
854.09	60.27829
854.272	116.87808
854.454	64.14359
854.636	90.59955
854.817	47.85344
854.999	67.44386
855.181	56.95542
855.362	58.51918
855.544	44.39866
855.726	80.1635
855.907	40.31318
856.089	18.87592
856.27	36.83569
856.452	35.66193
856.634	106.58217
856.815	47.6579
856.997	86.71633
857.178	34.83592
857.36	-1.16378
857.541	8.47719
857.722	58.84495
857.904	70.13589
858.085	39.98718
858.267	75.8664
858.448	42.33426
858.629	60.47374
858.811	14.74302
858.992	46.91917
859.173	52.58946
859.354	56.15179
859.536	106.99408
859.717	9.63039
859.898	54.41413
860.079	54.2838
860.26	57.06402
860.441	91.31539
860.623	55.19609
860.804	36.24882
860.985	59.40961
861.166	23.83455
861.347	-7.47692
861.528	0.904
861.709	79.27375
861.89	39.13958
862.071	86.00037
862.252	41.42154
862.433	33.18383
862.614	139.25566
862.794	29.20535
862.975	48.8094
863.156	145.20985
863.337	27.81383
863.518	91.51062
863.699	40.87823
863.879	72.41522
864.06	35.29241
864.241	55.45674
864.422	65.72864
864.602	31.5099
864.783	89.862
864.964	9.08643
865.144	47.33199
865.325	40.46531
865.506	72.91447
865.686	46.05005
865.867	56.19523
866.047	54.5879
866.228	70.30956
866.408	8.56422
866.589	59.45304
866.769	82.18159
866.95	44.5073
867.13	37.2704
867.31	58.64948
867.491	69.68
867.671	10.17433
867.852	24.35645
868.032	88.77733
868.212	59.12728
868.393	92.0746
868.573	36.57486
868.753	34.24901
868.933	39.00917
869.113	35.8793
869.294	28.53134
869.474	72.84935
869.654	34.92287
869.834	46.52807
870.014	58.14996
870.194	12.93739
870.374	79.72948
870.555	31.27076
870.735	19.52842
870.915	63.55732
871.095	41.24768
871.275	60.12627
871.455	72.93618
871.634	15.48264
871.814	76.64774
871.994	60.12627
872.174	46.1587
872.354	107.51438
872.534	47.89689
872.714	30.44462
872.894	25.87862
873.073	56.8251
873.253	76.10515
873.433	24.20423
873.613	17.63612
873.792	52.30706
873.972	43.44254
874.152	23.11691
874.331	83.6137
874.511	99.05828
874.691	30.4881
874.87	27.83557
875.05	36.14014
875.229	43.33388
875.409	61.29896
875.588	50.11293
875.768	59.82223
875.947	115.18765
876.127	93.6797
876.306	55.82599
876.486	46.7888
876.665	58.32371
876.844	45.8545
877.024	117.35485
877.203	58.1934
877.382	29.53148
877.562	19.33267
877.741	34.85766
877.92	70.63519
878.1	66.96622
878.279	36.9661
878.458	20.3984
878.637	54.43585
878.816	79.96819
878.996	50.33018
879.175	42.70369
879.354	24.18249
879.533	73.91296
879.712	41.37807
879.891	43.29042
880.07	98.0824
880.249	64.01331
880.428	61.19038
880.607	76.66945
880.786	-0.94611
880.965	83.6137
881.144	45.74586
881.323	15.41738
881.502	44.5073
881.68	42.37773
881.859	33.31427
882.038	64.05674
882.217	48.26624
882.396	5.45252
882.574	27.03107
882.753	42.37773
882.932	29.14013
883.111	74.54242
883.289	46.59326
883.468	34.24901
883.647	50.63432
883.825	68.63794
884.004	72.11132
884.182	47.02781
884.361	39.29171
884.539	24.9001
884.718	85.00233
884.896	9.10819
885.075	21.11611
885.253	73.023
885.432	54.45757
885.61	21.68157
885.789	39.46558
885.967	29.29232
886.145	98.8631
886.324	66.87937
886.502	55.91287
886.68	56.26039
886.859	35.48804
887.037	68.35571
887.215	52.74152
887.393	97.47518
887.572	17.52736
887.75	49.98258
887.928	72.58887
888.106	80.03329
888.284	86.91159
888.462	48.44006
888.64	42.94273
888.819	56.54275
888.997	67.83466
889.175	36.85742
889.353	8.6295
889.531	59.01869
889.709	50.54743
889.887	24.42169
890.065	94.48222
890.242	78.77461
890.42	97.32337
890.598	21.42059
890.776	76.17026
890.954	26.83537
891.132	8.52071
891.309	16.24399
891.487	63.6876
891.665	38.29194
891.843	52.93703
892.02	13.30723
892.198	61.29896
892.376	44.37693
892.553	91.35877
892.731	95.04613
892.909	57.71559
893.086	81.16171
893.264	50.06948
893.441	43.24696
893.619	41.72578
893.797	56.71651
893.974	58.64948
894.151	53.80592
894.329	33.07514
894.506	24.94359
894.684	54.87028
894.861	60.51717
895.039	36.61833
895.216	13.63355
895.393	78.83972
895.571	-0.42371
895.748	14.17742
895.925	112.19663
896.102	73.023
896.28	31.87948
896.457	10.04379
896.634	33.98815
896.811	10.21785
896.988	30.81421
897.166	55.10921
897.343	30.94465
897.52	71.93766
897.697	24.68264
897.874	88.30006
898.051	65.40295
898.228	33.98815
898.405	6.10536
898.582	13.1767
898.759	23.4866
898.936	78.57929
899.113	74.60753
899.29	66.92279
899.467	93.6797
899.643	97.62698
899.82	74.45559
899.997	92.74702
900.174	-19.47608
900.351	90.29586
900.527	53.1977
900.704	56.65135
900.881	114.49411
901.058	32.90123
901.234	66.44514
901.411	65.12069
901.588	39.16131
901.764	72.50204
901.941	79.05673
902.117	49.67843
902.294	45.68067
902.471	89.94877
902.647	13.72057
902.824	47.13645
903	63.8396
903.176	32.92297
903.353	71.87254
903.529	32.81427
903.706	66.29316
903.882	40.00892
904.058	13.59004
904.235	12.28473
904.411	13.28548
904.587	71.50351
904.764	60.58232
904.94	29.94457
905.116	37.79204
905.292	61.82013
905.469	35.70541
905.645	43.85541
905.821	69.4412
905.997	21.59458
906.173	23.61708
906.349	40.13932
906.525	44.26828
906.702	59.53991
906.878	28.31392
907.054	27.57466
907.23	58.60605
907.406	24.44344
907.582	96.49925
907.757	51.13398
907.933	19.61542
908.109	74.4773
908.285	43.68157
908.461	84.59009
908.637	8.41191
908.813	43.85541
908.988	59.60506
909.164	68.48597
909.34	68.61623
909.516	38.8353
909.691	16.30925
909.867	73.82613
910.043	46.28906
910.219	70.22272
910.394	85.241
910.57	78.96993
910.745	82.24669
910.921	80.07669
911.097	7.86793
911.272	-2.53512
911.448	81.791
911.623	22.68197
911.799	8.34663
911.974	0.59928
912.149	30.5968
912.325	61.60298
912.5	39.26998
912.676	30.05328
912.851	17.44035
913.026	71.11277
913.202	-4.97325
913.377	26.27003
913.552	-1.12024
913.727	113.41042
913.903	71.22131
914.078	20.46365
914.253	56.04319
914.428	40.31318
914.603	-13.72625
914.779	11.47975
914.954	39.05264
915.129	102.28925
915.304	67.05306
915.479	47.37545
915.654	44.8767
915.829	80.59751
916.004	-1.59912
916.179	65.94576
916.354	-7.41161
916.529	78.47078
916.704	35.77062
916.879	81.66081
917.053	104.45747
917.228	27.48768
917.403	52.06811
917.578	87.62753
917.753	48.76595
917.927	10.97935
918.102	22.8342
918.277	45.74586
918.452	34.20553
918.626	20.13741
918.801	72.63229
918.976	45.87623
919.15	20.61589
919.325	60.14799
919.499	43.486
919.674	73.7176
919.849	38.79183
920.023	72.0462
920.198	48.41833
920.372	34.48812
920.547	50.63432
920.721	24.05201
920.895	46.44116
921.07	20.15916
921.244	61.19038
921.419	82.72406
921.593	26.42224
921.767	71.72058
921.942	55.39158
922.116	7.5633
922.29	41.03036
922.464	42.22561
922.639	24.31296
922.813	21.65982
922.987	68.74649
923.161	25.9656
923.335	35.16198
923.509	53.11081
923.683	49.63498
923.858	50.82984
924.032	104.58756
924.206	65.03384
924.38	-17.21085
924.554	39.37865
924.728	44.57249
924.902	133.1919
925.075	64.03502
925.249	50.17811
925.423	79.59927
925.597	64.57786
925.771	35.8793
925.945	43.00793
926.119	103.04815
926.292	50.15638
926.466	53.00219
926.64	49.07011
926.814	53.76248
926.987	-5.2345
927.161	14.04689
927.335	6.1924
927.508	57.06402
927.682	-19.2147
927.856	4.6691
928.029	74.52071
928.203	76.23537
928.376	70.33127
928.55	22.74721
928.723	7.1281
928.897	48.98321
929.07	54.67478
929.244	71.91595
929.417	-14.40136
929.59	43.68157
929.764	34.66203
929.937	81.31361
930.111	94.00505
930.284	10.32663
930.457	7.5633
930.63	41.96483
930.804	45.20264
930.977	51.65536
931.15	54.63134
931.323	80.1635
931.497	23.59534
931.67	43.74676
931.843	81.9863
932.016	-6.38834
932.189	43.02966
932.362	53.56698
932.535	75.08504
932.708	45.05054
932.881	39.81332
933.054	83.74388
933.227	73.60907
933.4	1.20871
933.573	54.47929
933.746	11.13165
933.919	76.47412
934.092	33.336
934.264	43.18177
934.437	36.44444
934.61	-0.72844
934.783	19.83292
934.956	11.37097
935.128	52.85014
935.301	83.70049
935.474	16.02646
935.646	-10.72117
935.819	29.81412
935.992	49.52635
936.164	2.38399
936.337	18.91942
936.51	34.98809
936.682	33.46644
936.855	11.32746
937.027	89.40644
937.2	64.62129
937.372	27.79209
937.545	29.77064
937.717	45.31128
937.889	24.6609
938.062	77.0167
938.234	56.28211
938.406	23.98677
938.579	39.07438
938.751	78.29717
938.923	47.04954
939.096	87.06346
939.268	58.54089
939.44	50.15638
939.612	61.45097
939.784	72.69741
939.957	58.01965
940.129	58.88838
940.301	64.25216
940.473	46.57153
940.645	81.16171
940.817	76.51752
940.989	31.87948
941.161	23.44311
941.333	65.62008
941.505	22.89944
941.677	32.92297
941.849	21.68157
942.021	36.6618
942.193	14.50373
942.365	8.04201
942.537	47.04954
942.708	68.9853
942.88	58.1934
943.052	11.47975
943.224	28.33566
943.395	34.64029
943.567	40.7913
943.739	38.66143
943.911	9.34753
944.082	14.35145
944.254	101.59538
944.425	-11.80993
944.597	33.09688
944.769	66.9445
944.94	49.35255
945.112	105.04286
945.283	106.73392
945.455	8.9994
945.626	58.30199
945.798	31.64034
945.969	39.07438
946.14	60.71262
946.312	50.04776
946.483	34.05337
946.655	28.87922
946.826	45.05054
946.997	76.56093
947.168	-5.69167
947.34	21.22486
947.511	64.86013
947.682	35.09677
947.853	30.1185
948.025	89.92708
948.196	17.63612
948.367	47.48408
948.538	19.98517
948.709	53.84936
948.88	30.46636
949.051	42.50811
949.222	26.98758
949.393	57.86762
949.564	50.6126
949.735	23.44311
949.906	18.78892
950.077	20.92038
950.248	57.38981
950.419	9.78269
950.59	0.62105
950.761	13.54653
950.931	70.46152
951.102	77.92823
951.273	36.85742
951.444	33.48817
951.614	62.44988
951.785	21.52933
951.956	42.11695
952.126	92.42165
952.297	125.39367
952.468	25.9656
952.638	7.10634
952.809	50.11293
952.98	20.07216
953.15	26.11782
953.321	4.03799
953.491	-10.11148
953.662	43.89887
953.832	24.42169
954.002	21.39884
954.173	-19.51964
954.343	45.81104
954.514	6.01831
954.684	-13.13828
954.854	46.22388
955.025	56.69479
955.195	44.26828
955.365	40.37838
955.535	6.51881
955.706	79.46906
955.876	59.82223
956.046	74.97652
956.216	58.9101
956.386	62.97103
956.557	58.08481
956.727	12.63282
956.897	55.99975
957.067	22.05129
957.237	28.00952
957.407	57.21605
957.577	46.83226
957.747	20.02866
957.917	28.85748
958.087	17.87538
958.257	62.36302
958.427	32.24905
958.596	-4.14601
958.766	60.34344
958.936	-31.15385
959.106	84.76367
959.276	33.37948
959.445	15.63491
959.615	51.00364
959.785	43.74676
959.955	104.1973
960.124	48.52696
960.294	65.8372
960.464	8.60774
960.633	21.20311
960.803	24.96533
960.972	39.24825
961.142	-1.31614
961.311	31.68382
961.481	39.85679
961.65	70.76544
961.82	41.42154
961.989	113.2587
962.159	48.13589
962.328	102.63618
962.498	78.31887
962.667	-11.94058
962.836	33.57513
963.006	55.97803
963.175	24.24772
963.344	51.69881
963.513	13.74233
963.683	-25.79363
963.852	19.20217
964.021	34.59681
964.19	14.54724
964.359	16.46151
964.528	36.87916
964.698	-16.36143
964.867	13.13319
965.036	52.08983
965.205	90.68632
965.374	58.34543
965.543	47.26681
965.712	29.27058
965.881	40.61744
966.05	11.61029
966.219	27.79209
966.387	51.19916
966.556	58.10653
966.725	20.4854
966.894	66.14117
967.063	47.83171
967.232	53.21942
967.4	4.97377
967.569	27.29199
967.738	96.39081
967.906	8.76005
968.075	50.33018
968.244	-1.51205
968.412	4.56029
968.581	54.54446
968.75	32.94471
968.918	6.0836
969.087	14.91705
969.255	65.88063
969.424	45.72413
969.592	62.38473
969.761	40.7913
969.929	45.09399
970.098	52.63291
970.266	-10.22035
970.434	18.87592
970.603	48.61387
970.771	51.67708
970.939	32.37949
971.108	89.01596
971.276	3.14571
971.444	66.59712
971.612	-31.78581
971.781	25.53071
971.949	144.56036
972.117	42.921
972.285	77.38566
972.453	-11.11311
972.621	23.37787
972.789	27.00932
972.957	83.67879
973.125	12.52404
973.293	22.52973
973.461	44.94189
973.629	84.95894
973.797	22.72546
973.965	51.59019
974.133	45.91968
974.301	32.96645
974.469	14.13391
974.637	26.87886
974.805	115.53441
974.972	42.39946
975.14	80.81451
975.308	36.16187
975.476	13.39425
975.643	50.6995
975.811	38.44408
975.979	99.40524
976.146	47.61444
976.314	58.56261
976.482	44.00752
976.649	10.56596
976.817	47.57099
976.984	53.45837
977.152	14.96056
977.319	92.37827
977.487	80.1852
977.654	49.396
977.822	-11.76637
977.989	41.22595
978.156	18.09289
978.324	51.69881
978.491	30.18372
978.658	1.81812
978.826	44.05098
978.993	35.59672
979.16	32.87949
979.328	32.85775
979.495	72.65399
979.662	13.59004
979.829	11.52326
979.996	76.86478
980.163	75.67107
980.33	5.38724
980.498	27.40071
980.665	61.34239
980.832	-9.52358
980.999	43.11658
981.166	22.96468
981.333	65.44638
981.5	51.54674
981.667	138.77927
981.833	-4.99502
982	79.25205
982.167	17.44035
982.334	30.92291
982.501	27.13979
982.668	51.28605
982.834	7.17162
983.001	88.69055
983.168	71.59034
983.335	27.98777
983.501	21.26835
983.668	33.98815
983.835	31.81426
984.001	57.21605
984.168	4.36443
984.334	47.11472
984.501	40.24798
984.668	32.92297
984.834	-2.25214
985.001	-19.17113
985.167	72.93618
985.334	5.62661
985.5	6.86698
985.666	3.211
985.833	-9.69777
985.999	19.11517
986.165	41.70405
986.332	79.81628
986.498	26.24828
986.664	40.33491
986.831	51.02536
986.997	31.35772
987.163	9.69566
987.329	21.00737
987.495	-0.16252
987.662	69.98393
987.828	-2.77457
987.994	52.39395
988.16	63.96988
988.326	34.1838
988.492	37.44428
988.658	64.49101
988.824	46.11524
988.99	-0.35841
989.156	17.48386
989.322	108.85844
989.488	55.13093
989.654	14.96056
989.82	43.94233
989.985	97.12818
990.151	59.08384
990.317	102.41935
990.483	-16.57923
990.648	64.27387
990.814	39.18304
990.98	52.06811
991.146	56.41243
991.311	68.05176
991.477	56.8251
991.643	4.71263
991.808	-1.62088
991.974	-15.31604
992.139	46.87572
992.305	33.42296
992.47	15.37387
992.636	50.50398
992.801	74.86799
992.967	44.57249
993.132	19.96342
993.298	130.6144
993.463	32.83601
993.628	31.44468
993.794	18.09289
993.959	80.61921
994.124	5.64838
994.29	28.55309
994.455	78.77461
994.62	46.68017
994.785	90.01385
994.95	9.84797
995.116	75.71447
995.281	30.00979
995.446	42.16041
995.611	-9.37116
995.776	29.94457
995.941	68.78991
996.106	32.85775
996.271	27.83557
996.436	65.79378
996.601	72.63229
996.766	36.22708
996.931	52.39395
997.096	42.94273
997.261	9.84797
997.425	59.73536
997.59	15.48264
997.755	35.07503
997.92	31.44468
998.085	38.48755
998.249	6.58409
998.414	-14.72803
998.579	-1.46851
998.744	28.33566
998.908	63.81789
999.073	80.03329
999.237	53.82764
999.402	30.66202
999.567	36.77048
999.731	29.14013
999.896	-3.29702
1000.06	71.80741
1000.225	48.26624
1000.389	28.55309
1000.553	49.22219
1000.718	65.94576
1000.882	-28.23392
1001.047	33.83599
1001.211	22.26876
1001.375	110.72267
1001.54	33.20557
1001.704	15.19985
1001.868	74.39048
1002.032	99.60041
1002.197	48.59214
1002.361	12.67633
1002.525	41.66059
1002.689	45.89796
1002.853	21.76856
1003.017	0.96929
1003.181	10.54421
1003.345	27.00932
1003.509	79.25205
1003.673	55.60878
1003.837	73.86954
1004.001	23.87804
1004.165	31.0751
1004.329	65.1424
1004.493	45.76759
1004.657	54.80511
1004.821	18.57141
1004.985	63.88303
1005.149	29.8576
1005.312	46.7888
1005.476	25.7699
1005.64	123.18377
1005.804	18.65841
1005.967	59.60506
1006.131	58.34543
1006.295	62.21101
1006.458	42.87754
1006.622	44.02925
1006.785	28.96619
1006.949	72.39351
1007.113	18.52791
1007.276	28.57483
1007.44	47.9838
1007.603	3.25453
1007.767	39.70465
1007.93	22.89944
1008.093	25.11755
1008.257	48.3966
1008.42	5.25667
1008.584	48.37488
1008.747	23.05167
1008.91	58.75807
1009.073	5.73542
1009.237	51.35122
1009.4	45.18091
1009.563	-11.7446
1009.726	19.28917
1009.889	109.48709
1010.053	65.40295
1010.216	32.07514
1010.379	74.73776
1010.542	112.80353
1010.705	69.37607
1010.868	75.41061
1011.031	54.97888
1011.194	32.0534
1011.357	51.50329
1011.52	28.83574
1011.683	3.40687
1011.846	44.39866
1012.009	55.4133
1012.171	41.00862
1012.334	48.3097
1012.497	65.72864
1012.66	5.25667
1012.823	42.03003
1012.985	81.57401
1013.148	65.68522
1013.311	33.22731
1013.473	40.31318
1013.636	20.18091
1013.799	76.90819
1013.961	54.80511
1014.124	53.82764
1014.286	49.4829
1014.449	-8.67442
1014.612	59.62678
1014.774	31.5099
1014.936	42.72542
1015.099	-13.48671
1015.261	-1.66442
1015.424	49.02666
1015.586	48.44006
1015.748	42.2908
1015.911	9.10819
1016.073	146.53042
1016.235	75.43232
1016.398	45.98487
1016.56	66.09775
1016.722	6.34473
1016.884	9.86972
1017.047	67.46557
1017.209	44.81152
1017.371	14.656
1017.533	-0.48901
1017.695	90.92494
1017.857	57.52012
1018.019	74.43389
1018.181	67.22675
1018.343	43.79022
1018.505	37.90072
1018.667	-19.4543
1018.829	19.31092
1018.991	48.00553
1019.153	40.24798
1019.315	-25.64112
1019.477	19.31092
1019.638	36.00972
1019.8	3.99447
1019.962	55.54362
1020.124	25.46547
1020.285	39.24825
1020.447	46.07178
1020.609	44.96362
1020.77	8.39015
1020.932	116.29294
1021.094	16.63553
1021.255	20.20266
1021.417	83.72219
1021.578	0.12044
1021.74	31.79252
1021.901	30.66202
1022.063	40.09585
1022.224	66.5537
1022.386	43.24696
1022.547	50.00431
1022.709	52.17672
1022.87	81.27021
1023.031	37.18346
1023.193	23.8128
1023.354	54.93544
1023.515	72.39351
1023.676	65.40295
1023.838	49.13529
1023.999	45.00708
1024.16	57.1509
1024.321	61.51611
1024.482	58.38887
1024.644	96.4125
1024.805	62.29787
1024.966	31.31424
1025.127	8.02025
1025.288	46.11524
1025.449	100.44612
1025.61	47.37545
1025.771	54.39241
1025.932	75.3455
1026.093	60.36516
1026.253	42.89927
1026.414	-20.54342
1026.575	16.09172
1026.736	12.89388
1026.897	16.11347
1027.058	73.58737
1027.218	56.10835
1027.379	-4.14601
1027.54	50.3519
1027.7	53.04564
1027.861	70.4181
1028.022	49.89568
1028.182	29.55322
1028.343	45.94141
1028.504	15.15634
1028.664	14.96056
1028.825	26.59619
1028.985	47.94035
1029.146	15.9177
1029.306	19.33267
1029.466	88.95088
1029.627	72.21985
1029.787	49.8305
1029.948	41.07382
1030.108	42.52985
1030.268	70.13589
1030.429	-0.44548
1030.589	30.94465
1030.749	28.27043
1030.909	42.70369
1031.07	63.77446
1031.23	29.53148
1031.39	-4.90794
1031.55	44.89843
1031.71	9.97851
1031.87	45.8545
1032.03	60.92978
1032.19	27.35722
1032.35	38.48755
1032.51	81.20511
1032.67	8.71654
1032.83	20.83338
1032.99	29.05316
1033.15	55.19609
1033.31	59.38789
1033.47	0.55575
1033.63	45.96314
1033.79	32.53166
1033.949	9.32577
1034.109	61.79842
1034.269	40.8565
1034.429	100.85813
1034.588	67.50899
1034.748	28.87922
1034.908	30.1185
1035.067	41.72578
1035.227	24.11725
1035.387	40.74784
1035.546	86.34751
1035.706	11.1534
1035.865	60.30001
1036.025	27.00932
1036.184	31.2925
1036.344	46.33252
1036.503	63.64417
1036.662	10.95759
1036.822	53.76248
1036.981	31.11858
1037.14	44.07271
1037.3	27.27025
1037.459	19.48492
1037.618	65.64179
1037.778	60.30001
1037.937	51.37295
1038.096	46.3977
1038.255	44.1379
1038.414	27.22676
1038.573	95.32809
1038.733	52.80669
1038.892	67.53071
1039.051	92.18305
1039.21	76.32219
1039.369	28.74877
1039.528	77.25544
1039.687	32.00992
1039.846	73.89125
1040.005	20.3549
1040.164	39.94372
1040.322	17.39685
1040.481	37.13999
1040.64	27.20502
1040.799	22.16003
1040.958	76.995
1041.116	37.81378
1041.275	25.5742
1041.434	50.37363
1041.593	7.19338
1041.751	23.83455
1041.91	65.09897
1042.069	15.24335
1042.227	29.90109
1042.386	86.67294
1042.544	11.84961
1042.703	36.61833
1042.861	38.48755
1043.02	14.13391
1043.178	68.05176
1043.337	104.91278
1043.495	54.54446
1043.653	34.79245
1043.812	20.07216
1043.97	38.22674
1044.129	26.18305
1044.287	62.14586
1044.445	50.74295
1044.603	-9.98083
1044.762	-25.40146
1044.92	76.25708
1045.078	45.94141
1045.236	19.46317
1045.394	48.91803
1045.552	85.43627
