Data from deut_8ms_500_SR4014911__0__16-03-00-433.txt Node

Date: Sun Jul 13 16:03:00 EDT 2025
User: cryst
Spectrometer: SR401491
Trigger mode: 0
Integration Time (sec): 8.000000E-3
Scans to average: 500
Electric dark correction enabled: true
Nonlinearity correction enabled: true
Boxcar width: 0
XAxis mode: Wavelengths
Number of Pixels in Spectrum: 3648
>>>>>Begin Spectral Data<<<<<
344.912	-20.6275
345.129	-10.38714
345.347	-15.12134
345.565	-2.19468
345.783	2.24121
346.001	8.1495
346.219	-2.29263
346.437	7.22036
346.654	0.29326
346.872	12.49445
347.09	-1.49594
347.308	8.36491
347.526	3.22711
347.743	7.33569
347.961	2.77007
348.179	7.15073
348.397	-0.39019
348.614	20.67984
348.832	19.32702
349.05	24.27034
349.268	17.42817
349.485	22.61977
349.703	14.37842
349.921	30.20633
350.138	17.99806
350.356	20.86688
350.574	15.27903
350.791	24.17901
351.009	13.85415
351.227	24.40516
351.444	16.32099
351.662	25.46417
351.879	11.84395
352.097	25.41415
352.314	19.06602
352.532	27.7212
352.75	24.25512
352.967	25.62726
353.185	18.68756
353.402	26.94061
353.62	16.92788
353.837	28.24956
354.055	18.07201
354.272	27.4929
354.49	19.39009
354.707	28.76051
354.925	16.28401
355.142	27.64076
355.359	15.32036
355.577	27.08412
355.794	22.91771
356.012	30.55636
356.229	19.97951
356.446	26.70578
356.664	15.47698
356.881	29.4693
357.099	16.50154
357.316	27.49725
357.533	18.80501
357.751	25.50983
357.968	22.87204
358.185	26.08172
358.402	16.48196
358.62	31.8347
358.837	21.24748
359.054	30.22373
359.272	21.85643
359.489	30.34548
359.706	20.49932
359.923	32.80427
360.141	23.07646
360.358	24.76614
360.575	15.2638
360.792	26.39266
361.009	16.60595
361.226	29.46278
361.444	21.46931
361.661	27.32113
361.878	17.41947
362.095	27.92776
362.312	20.54064
362.529	29.81934
362.746	19.11387
362.963	21.61502
363.181	16.20353
363.398	21.62155
363.615	27.02324
363.832	28.67354
364.049	18.07636
364.266	31.6173
364.483	15.94032
364.7	22.40664
364.917	16.69513
365.134	28.22347
365.351	19.02904
365.568	21.95647
365.785	25.77512
366.002	27.87776
366.219	17.26938
366.436	35.5802
366.652	20.19265
366.869	30.8216
367.086	18.31562
367.303	31.42598
367.52	18.84851
367.737	26.67969
367.954	19.30962
368.171	28.16259
368.387	20.76901
368.604	28.03213
368.821	17.78707
369.038	26.46442
369.255	19.69894
369.471	22.79157
369.688	23.22216
369.905	28.98663
370.122	14.96143
370.339	29.57366
370.555	12.14419
370.772	24.54869
370.989	24.99665
371.205	28.71267
371.422	14.51112
371.639	28.24738
371.855	22.70676
372.072	22.41534
372.289	17.65004
372.505	28.91923
372.722	16.89308
372.939	25.7512
373.155	17.21283
373.372	24.14421
373.589	21.3236
373.805	26.84494
374.022	14.20439
374.238	24.52912
374.455	18.15902
374.671	34.74984
374.888	19.25089
375.104	25.67075
375.321	14.56116
375.537	29.2758
375.754	20.59066
375.97	25.76207
376.187	25.03144
376.403	32.14992
376.62	19.18782
376.836	23.30263
377.053	21.62155
377.269	25.56854
377.486	13.60397
377.702	21.33882
377.918	16.62118
378.135	23.03949
378.351	20.75161
378.568	32.58253
378.784	20.62546
379	28.23434
379.217	15.00929
379.433	21.04739
379.649	19.62499
379.865	23.75061
380.082	20.06433
380.298	33.03036
380.514	27.83644
380.731	25.34022
380.947	17.71747
381.163	29.47147
381.379	15.89247
381.596	26.61445
381.812	20.41232
382.028	29.13447
382.244	15.96425
382.46	25.4185
382.676	21.63895
382.893	24.77919
383.109	16.98444
383.325	28.41915
383.541	19.78159
383.757	21.72159
383.973	19.57932
384.189	32.2521
384.405	21.23443
384.622	28.23869
384.838	20.05781
385.054	28.52569
385.27	21.87382
385.486	28.20607
385.702	17.46732
385.918	32.21079
386.134	26.66881
386.35	31.53251
386.566	27.26242
386.782	32.89775
386.998	23.69189
387.214	25.0858
387.43	24.94663
387.646	34.45204
387.861	22.14567
388.077	30.91943
388.293	20.4493
388.509	31.9934
388.725	19.31832
388.941	28.53874
389.157	25.26846
389.373	30.91943
389.588	23.1678
389.804	29.48234
390.02	22.56323
390.236	30.45418
390.452	16.76256
390.668	25.04449
390.883	22.89161
391.099	30.97161
391.315	26.87538
391.531	28.61266
391.746	27.84297
391.962	35.43457
392.178	25.37936
392.393	32.81079
392.609	27.2298
392.825	32.11079
393.041	25.66857
393.256	30.43896
393.472	23.43528
393.687	32.47601
393.903	31.89991
394.119	34.89331
394.334	22.60455
394.55	39.21217
394.766	25.325
394.981	38.68838
395.197	30.06284
395.412	35.62802
395.628	33.44122
395.843	36.72136
396.059	35.25632
396.274	36.88872
396.49	35.76714
396.705	29.91065
396.921	23.4853
397.136	30.45418
397.352	26.07954
397.567	29.43886
397.783	25.76207
397.998	34.30422
398.214	20.94735
398.429	32.84558
398.644	29.51713
398.86	36.12362
399.075	28.76703
399.29	31.68904
399.506	25.82296
399.721	35.47369
399.936	25.59029
400.152	36.191
400.367	24.41821
400.582	30.53462
400.798	23.09821
401.013	31.1738
401.228	21.8238
401.444	28.45394
401.659	31.34337
401.874	36.31707
402.089	19.44012
402.304	33.37166
402.52	23.66362
402.735	28.4322
402.95	28.94749
403.165	36.23882
403.38	29.98457
403.596	30.7129
403.811	29.88456
404.026	40.76174
404.241	24.15291
404.456	28.97576
404.671	27.47551
404.886	36.63224
405.101	25.21192
405.316	38.87529
405.532	26.46442
405.747	35.83452
405.962	29.81064
406.177	34.04772
406.392	22.51538
406.607	37.27562
406.822	27.51682
407.037	43.62594
407.252	36.51269
407.467	52.39482
407.682	39.06438
407.896	53.12254
408.111	48.24973
408.326	59.13466
408.541	50.64606
408.756	69.05781
408.971	60.07719
409.186	65.57969
409.401	52.9531
409.616	46.8114
409.83	25.33587
410.045	30.02806
410.26	26.18609
410.475	28.84095
410.69	26.2622
410.905	33.38905
411.119	18.34607
411.334	30.7629
411.549	25.49679
411.764	33.9912
411.978	28.01256
412.193	36.04754
412.408	25.13364
412.623	32.37384
412.837	26.98628
413.052	37.09739
413.267	27.54943
413.481	31.23684
413.696	22.04998
413.911	31.9347
414.125	25.20975
414.34	30.85421
414.554	23.48312
414.769	33.9912
414.984	25.67944
415.198	30.12589
415.413	20.3014
415.627	33.19122
415.842	18.31997
416.056	31.36728
416.271	23.62448
416.485	34.47378
416.7	25.49679
416.914	32.74558
417.129	26.39266
417.343	32.12383
417.558	26.43833
417.772	36.56269
417.987	23.75713
418.201	26.84929
418.415	21.93689
418.63	29.37798
418.844	23.82454
419.059	32.87384
419.273	27.75817
419.487	36.16491
419.702	27.45594
419.916	38.49277
420.13	28.21694
420.345	31.24989
420.559	26.45355
420.773	27.01889
420.988	22.03041
421.202	39.10785
421.416	25.08145
421.63	35.65845
421.845	27.56465
422.059	36.37141
422.273	27.56465
422.487	36.76048
422.701	34.06293
422.916	42.47204
423.13	25.76425
423.344	27.94733
423.558	24.94881
423.772	30.82595
423.986	26.19044
424.201	32.05427
424.415	28.11693
424.629	34.35639
424.843	26.77753
425.057	37.1865
425.271	18.94856
425.485	29.21927
425.699	19.76419
425.913	43.41081
426.127	24.06593
426.341	30.91074
426.555	28.43872
426.769	39.25564
426.983	29.6541
427.197	32.66732
427.411	19.30744
427.625	34.44769
427.839	24.32253
428.053	30.67811
428.267	23.90283
428.481	34.95635
428.695	23.76148
428.908	34.54551
429.122	31.09336
429.336	38.91659
429.55	28.62353
429.764	34.38683
429.978	35.8606
430.191	49.86613
430.405	53.85023
430.619	69.14899
430.833	77.12175
431.047	100.71371
431.26	116.04458
431.474	146.0377
431.688	154.21317
431.901	170.57852
432.115	184.03531
432.329	212.03103
432.543	218.07339
432.756	266.82312
432.97	263.9366
433.184	191.07792
433.397	89.16434
433.611	47.5045
433.824	36.56921
434.038	40.22712
434.252	23.13083
434.465	35.06721
434.679	24.82486
434.892	38.17545
435.106	19.96646
435.319	28.77573
435.533	28.49525
435.747	36.74744
435.96	26.0752
436.174	35.77801
436.387	25.59464
436.601	35.77583
436.814	24.58131
437.027	27.71033
437.241	26.17522
437.454	24.00939
437.668	23.37439
437.881	39.96197
438.095	26.66012
438.308	35.27806
438.521	31.19119
438.735	34.46508
438.948	27.8147
439.161	33.7499
439.375	24.64872
439.588	35.61281
439.801	30.95422
440.015	36.04319
440.228	29.51496
440.441	39.44037
440.654	37.87116
440.868	42.36556
441.081	25.0771
441.294	37.74292
441.507	28.94097
441.721	33.68904
441.934	28.88879
442.147	32.14557
442.36	24.52477
442.573	40.49661
442.786	31.56947
443	41.77229
443.213	30.39548
443.426	40.44445
443.639	29.7128
443.852	39.73812
444.065	32.13035
444.278	40.54659
444.491	33.13688
444.704	40.52051
444.917	33.92164
445.13	40.7248
445.343	31.25858
445.556	45.19699
445.769	37.56904
445.982	44.72764
446.195	36.96262
446.408	37.08869
446.621	30.74551
446.834	39.03612
447.047	36.91915
447.26	41.15075
447.473	34.22814
447.686	36.06493
447.899	36.78004
448.111	44.83194
448.324	33.00862
448.537	37.04087
448.75	32.38036
448.963	36.41923
449.176	36.03667
449.388	43.15656
449.601	28.59527
449.814	38.63187
450.027	33.96511
450.239	37.46689
450.452	32.36732
450.665	33.00645
450.878	27.59509
451.09	36.41271
451.303	30.51071
451.516	37.60817
451.728	35.97581
451.941	35.63672
452.154	32.94992
452.366	35.52151
452.579	26.72317
452.792	41.19204
453.004	29.16926
453.217	36.31924
453.429	27.95386
453.642	42.43292
453.854	30.17807
454.067	41.2529
454.28	33.74556
454.492	35.30849
454.705	29.67367
454.917	36.4953
455.13	31.3825
455.342	39.10785
455.555	28.65397
455.767	44.26915
455.979	33.87381
456.192	36.49965
456.404	28.48655
456.617	43.79109
456.829	26.08172
457.041	42.24169
457.254	33.26731
457.466	39.40777
457.679	31.24337
457.891	35.65845
458.103	26.20784
458.315	44.06271
458.528	31.00422
458.74	40.19235
458.952	27.89732
459.165	39.04916
459.377	31.7086
459.589	29.97805
459.801	30.61506
460.014	38.42757
460.226	29.57366
460.438	38.1385
460.65	30.57158
460.862	35.86278
461.075	23.24174
461.287	33.06297
461.499	23.06559
461.711	28.47133
461.923	27.55813
462.135	38.26673
462.347	25.33805
462.559	40.74653
462.771	36.0671
462.983	33.71295
463.196	28.15172
463.408	42.15259
463.62	34.88027
463.832	41.37459
464.044	35.37153
464.256	49.94217
464.468	28.16476
464.68	34.50638
464.891	33.13253
465.103	39.42951
465.315	37.43428
465.527	38.14936
465.739	20.9169
465.951	34.94983
466.163	26.38179
466.375	33.76077
466.587	31.84339
466.799	36.767
467.01	26.93844
467.222	33.72382
467.434	28.19085
467.646	36.07362
467.858	26.3557
468.069	39.1361
468.281	25.65987
468.493	26.82972
468.705	17.90018
468.916	30.69768
469.128	19.06167
469.34	30.95422
469.551	23.00469
469.763	26.75144
469.975	19.65979
470.186	32.35862
470.398	22.45884
470.61	30.92161
470.821	21.42364
471.033	31.58034
471.245	24.92489
471.456	27.87993
471.668	23.05906
471.879	31.71947
472.091	28.0343
472.302	38.27108
472.514	34.2151
472.725	33.27818
472.937	25.53158
473.148	32.62166
473.36	28.10606
473.571	34.13467
473.783	22.33053
473.994	32.12383
474.206	21.59545
474.417	35.93016
474.629	24.83138
474.84	39.3078
475.051	27.10152
475.263	36.94958
475.474	24.62915
475.685	34.68681
475.897	22.94163
476.108	35.62368
476.319	24.63132
476.531	31.4499
476.742	29.5954
476.953	39.82723
477.165	32.68036
477.376	33.69991
477.587	27.35157
477.798	37.66033
478.01	18.21992
478.221	39.18174
478.432	19.98386
478.643	33.08688
478.854	23.18737
479.065	43.06312
479.277	35.63889
479.488	39.51644
479.699	31.22163
479.91	37.12129
480.121	33.00427
480.332	35.89321
480.543	32.66949
480.754	35.00635
480.965	29.29971
481.176	41.61582
481.387	41.3659
481.598	39.65119
481.809	39.04047
482.02	60.76778
482.231	112.99297
482.442	225.53278
482.653	408.1395
482.864	632.48347
483.075	958.13785
483.286	1366.81775
483.497	1837.35342
483.708	2224.67093
483.919	2528.43259
484.13	2827.40799
484.341	3212.71715
484.551	3769.9337
484.762	4197.76757
484.973	4275.8605
485.184	2857.0201
485.395	910.09174
485.605	289.55805
485.816	149.95582
486.027	77.46465
486.238	66.78688
486.449	61.01535
486.659	60.54844
486.87	46.77012
487.081	46.492
487.291	40.36621
487.502	43.07833
487.713	33.80425
487.923	42.84147
488.134	27.21893
488.345	51.4542
488.555	40.14236
488.766	40.58788
488.976	39.3317
489.187	49.32952
489.398	39.79463
489.608	44.34086
489.819	33.35644
490.029	43.09137
490.24	41.45718
490.45	46.86138
490.661	31.79339
490.871	36.70832
491.082	30.6542
491.292	41.57888
491.503	39.47515
491.713	44.30826
491.924	32.5021
492.134	42.39164
492.344	34.2651
492.555	42.78714
492.765	40.56832
492.975	42.10478
493.186	33.63686
493.396	37.59295
493.607	26.18827
493.817	45.31433
494.027	31.84122
494.237	37.71684
494.448	28.87574
494.658	40.21625
494.868	26.25567
495.078	40.99645
495.289	37.48862
495.499	46.95915
495.709	33.5173
495.919	44.25394
496.129	36.14753
496.34	41.15727
496.55	27.01672
496.76	43.54771
496.97	34.49117
497.18	36.91698
497.39	31.21293
497.6	40.71393
497.81	37.27344
498.021	49.98562
498.231	37.46689
498.441	46.53111
498.651	33.52817
498.861	38.07329
499.071	34.0325
499.281	43.10441
499.491	30.63246
499.701	42.33731
499.911	33.31514
500.121	42.03741
500.331	37.61034
500.54	51.28475
500.75	36.05406
500.96	39.50992
501.17	32.40862
501.38	43.55206
501.59	39.88808
501.8	37.81899
502.01	31.23902
502.219	41.20291
502.429	31.3412
502.639	45.26
502.849	37.21041
503.059	43.07616
503.268	32.1434
503.478	39.27085
503.688	32.97601
503.898	42.68935
504.107	30.26503
504.317	43.68461
504.527	35.23024
504.736	44.9797
504.946	33.1521
505.156	41.62234
505.365	29.00185
505.575	43.0566
505.785	28.91705
505.994	39.82288
506.204	29.24971
506.413	36.17578
506.623	23.96807
506.832	35.44109
507.042	30.36504
507.251	39.7316
507.461	29.61714
507.67	38.18631
507.88	34.49117
508.089	41.19639
508.299	30.36069
508.508	40.2119
508.718	26.94931
508.927	37.13216
509.137	34.78897
509.346	44.86888
509.555	32.02166
509.765	36.05623
509.974	38.71663
510.184	43.60421
510.393	34.51725
510.602	40.96168
510.812	36.39532
511.021	39.05351
511.23	31.876
511.439	36.52356
511.649	31.16945
511.858	37.87116
512.067	35.11068
512.276	41.31592
512.486	43.82803
512.695	38.36236
512.904	24.94011
513.113	39.56425
513.322	32.3021
513.531	38.42105
513.741	30.44114
513.95	33.95424
514.159	30.96726
514.368	31.96731
514.577	25.17496
514.786	35.36935
514.995	32.31297
515.204	34.87375
515.413	25.30543
515.622	37.36038
515.831	32.28688
516.04	41.5528
516.249	25.62943
516.458	34.58464
516.667	24.92054
516.876	38.50798
517.085	26.87756
517.294	46.36598
517.503	29.44973
517.712	41.41154
517.921	32.15862
518.13	38.93615
518.339	28.80399
518.547	42.99141
518.756	30.20416
518.965	40.62048
519.174	28.24304
519.383	38.10372
519.591	29.34537
519.8	33.51513
520.009	30.62811
520.218	38.06025
520.426	31.04988
520.635	38.9318
520.844	28.14302
521.053	40.29014
521.261	29.21274
521.47	35.85408
521.679	32.19992
521.887	37.91463
522.096	24.71178
522.304	29.97153
522.513	23.62665
522.722	30.09328
522.93	32.56949
523.139	36.04971
523.347	26.347
523.556	37.24301
523.764	28.05822
523.973	37.14955
524.182	27.54074
524.39	35.23893
524.598	24.70091
524.807	38.50364
525.015	30.57158
525.224	38.01678
525.432	28.567
525.641	32.80427
525.849	28.043
526.057	38.44278
526.266	32.33905
526.474	36.44314
526.683	24.87487
526.891	37.53209
527.099	25.87732
527.308	39.47297
527.516	23.50487
527.724	39.97501
527.932	23.61795
528.141	36.86699
528.349	32.24123
528.557	32.86732
528.765	27.11891
528.974	33.36296
529.182	26.60141
529.39	37.68641
529.598	26.85146
529.806	35.43239
530.015	31.65643
530.223	32.50645
530.431	25.05971
530.639	29.73455
530.847	28.76051
531.055	35.70845
531.263	24.76614
531.471	33.35644
531.679	15.87289
531.887	34.48465
532.095	24.59653
532.303	37.46689
532.511	30.36287
532.719	40.13801
532.927	31.68034
533.135	36.31272
533.343	35.82365
533.551	35.2498
533.759	32.53253
533.967	34.51725
534.175	31.21293
534.383	43.66505
534.591	34.25857
534.798	42.15476
535.006	29.64541
535.214	38.75575
535.422	31.69121
535.63	38.32107
535.837	28.38219
536.045	33.26296
536.253	31.20206
536.461	40.41402
536.668	28.90401
536.876	35.74105
537.084	35.61063
537.292	37.02348
537.499	33.90859
537.707	40.80521
537.915	33.76077
538.122	44.44081
538.33	32.53471
538.538	41.22682
538.745	35.828
538.953	45.14049
539.16	33.70425
539.368	38.5145
539.575	30.13894
539.783	37.20606
539.99	35.68671
540.198	40.31188
540.406	26.35352
540.613	34.00859
540.82	27.57335
541.028	39.89025
541.235	40.49878
541.443	46.14001
541.65	35.29762
541.858	39.57512
542.065	31.01727
542.272	38.96658
542.48	40.08151
542.687	38.67968
542.895	27.03411
543.102	39.56643
543.309	32.01079
543.516	39.48601
543.724	30.5868
543.931	39.47297
544.138	35.49325
544.346	43.03053
544.553	34.77593
544.76	36.20839
544.967	27.31895
545.174	40.36186
545.382	30.6455
545.589	37.47993
545.796	31.43685
546.003	35.71062
546.21	30.84552
546.417	43.18047
546.624	31.83904
546.832	44.76893
547.039	35.71062
547.246	46.58978
547.453	31.1064
547.66	37.26257
547.867	38.11241
548.074	42.78931
548.281	31.14336
548.488	34.71724
548.695	30.02153
548.902	35.88234
549.109	34.439
549.316	33.45644
549.523	29.09751
549.73	36.39749
549.936	28.6431
550.143	32.04557
550.35	26.2361
550.557	35.48239
550.764	27.8821
550.971	35.93668
551.178	30.95204
551.384	39.02308
551.591	32.08905
551.798	40.92039
552.005	30.4107
552.211	40.98342
552.418	26.21654
552.625	36.91046
552.832	32.4521
553.038	43.3065
553.245	32.55427
553.452	39.62945
553.658	30.02806
553.865	34.75854
554.072	27.44072
554.278	41.74186
554.485	39.28389
554.691	45.11442
554.898	29.95848
555.105	38.03634
555.311	33.33253
555.518	43.3956
555.724	29.38885
555.931	31.44338
556.137	29.39103
556.344	34.21945
556.55	34.96939
556.757	42.77193
556.963	34.47378
557.17	39.46645
557.376	35.19546
557.582	38.45147
557.789	21.63242
557.995	38.91659
558.202	28.26478
558.408	42.1439
558.614	27.58205
558.821	37.16911
559.027	34.81288
559.233	40.86606
559.439	37.6712
559.646	38.28847
559.852	37.00827
560.058	43.47817
560.264	35.55629
560.471	39.35561
560.677	29.84978
560.883	46.37467
561.089	30.75638
561.295	44.80804
561.502	31.14988
561.708	36.89959
561.914	38.01678
562.12	40.94212
562.326	32.83253
562.532	44.55598
562.738	32.43906
562.944	35.48239
563.15	37.67772
563.356	35.51499
563.562	33.33253
563.768	43.8628
563.974	21.31925
564.18	43.07833
564.386	28.88661
564.592	38.18849
564.798	25.87949
565.004	41.40719
565.21	28.54743
565.416	40.06847
565.622	35.53238
565.828	43.21306
566.034	38.98179
566.239	40.40533
566.445	39.0057
566.651	47.11559
566.857	41.75273
567.063	47.43932
567.268	41.88312
567.474	53.84372
567.68	42.66979
567.886	55.29905
568.091	55.43154
568.297	55.40331
568.503	51.97774
568.708	68.61927
568.914	57.98143
569.12	69.33135
569.325	56.02017
569.531	59.87739
569.737	41.97874
569.942	55.4272
570.148	59.39962
570.353	71.51089
570.559	63.24767
570.765	63.92515
570.97	60.80253
571.176	78.58016
571.381	59.7775
571.587	56.38724
571.792	47.36328
571.998	58.37019
572.203	51.38685
572.408	82.15425
572.614	74.08096
572.819	78.20905
573.025	59.58204
573.23	67.44473
573.435	64.80889
573.641	71.78223
573.846	58.85233
574.051	71.62811
574.257	73.24962
574.462	74.08096
574.667	57.94016
574.873	70.26918
575.078	69.02524
575.283	71.65633
575.488	67.8898
575.694	84.92726
575.899	64.19006
576.104	79.32019
576.309	72.81766
576.514	76.74194
576.719	89.24027
576.925	106.55051
577.13	89.60906
577.335	90.1644
577.54	76.80488
577.745	70.40811
577.95	68.20243
578.155	69.82849
578.36	55.80731
578.565	69.34437
578.77	77.66866
578.975	89.65895
579.18	70.96602
579.385	88.44411
579.59	83.23485
579.795	81.77017
580	63.08916
580.205	75.42667
580.41	85.5326
580.615	134.15656
580.82	136.82252
581.024	117.71762
581.229	106.00418
581.434	109.96919
581.639	81.95028
581.844	72.34228
582.049	59.45174
582.253	72.89363
582.458	59.64285
582.663	60.40511
582.868	52.1689
583.072	59.61462
583.277	63.05441
583.482	89.53313
583.686	79.50682
583.891	77.38218
584.096	78.0159
584.3	95.68898
584.505	76.04742
584.71	81.1756
584.914	81.09097
585.119	83.29777
585.323	70.03472
585.528	68.3696
585.733	58.55045
585.937	69.01222
586.142	57.79899
586.346	78.32191
586.551	72.38787
586.755	81.17994
586.959	89.288
587.164	91.36181
587.368	68.1677
587.573	87.06216
587.777	104.44316
587.982	234.45125
588.186	429.69643
588.39	226.49987
588.595	149.61815
588.799	269.39034
589.003	139.97326
589.208	82.67069
589.412	65.3452
589.616	62.18365
589.82	60.34865
590.025	66.38739
590.229	55.68785
590.433	57.98143
590.637	51.59757
590.842	71.63028
591.046	70.24313
591.25	72.89146
591.454	50.17246
591.658	61.10438
591.862	74.69088
592.067	116.86594
592.271	95.9384
592.475	79.88659
592.679	81.07361
592.883	83.49089
593.087	76.1364
593.291	72.36833
593.495	58.8545
593.699	64.54833
593.903	72.69393
594.107	94.34427
594.311	88.78904
594.515	88.49617
594.719	69.04912
594.923	74.86018
595.127	75.25955
595.33	70.65342
595.534	55.34683
595.738	79.93433
595.942	68.94709
596.146	69.11642
596.35	68.49118
596.553	71.83433
596.757	66.83247
596.961	93.81071
597.165	65.10853
597.369	61.13913
597.572	56.42199
597.776	65.17801
597.98	76.27965
598.183	93.41161
598.387	82.01754
598.591	66.94754
598.794	64.74809
598.998	64.76329
599.202	72.47252
599.405	85.71919
599.609	74.40871
599.812	85.6541
600.016	83.05475
600.22	93.77383
600.423	87.8627
600.627	86.82568
600.83	62.91327
601.034	87.89524
601.237	89.64594
601.441	67.57282
601.644	59.58204
601.847	79.50031
602.051	71.10278
602.254	74.18949
602.458	75.10979
602.661	92.29021
602.864	76.35344
603.068	74.46297
603.271	56.38289
603.475	68.31533
603.678	59.68628
603.881	68.23717
604.084	52.44044
604.288	64.48536
604.491	74.40654
604.694	80.96945
604.897	58.60692
605.101	67.74217
605.304	68.11993
605.507	63.20859
605.71	49.07098
605.913	80.37486
606.116	69.61574
606.32	68.49335
606.523	62.87201
606.726	69.65265
606.929	65.15195
607.132	69.60706
607.335	67.45993
607.538	64.59176
607.741	54.54315
607.944	52.94876
608.147	45.46425
608.35	63.92949
608.553	53.60695
608.756	64.74809
608.959	64.52662
609.162	81.16041
609.365	66.50246
609.568	69.88276
609.771	50.8872
609.973	67.55546
610.176	64.66558
610.379	62.99144
610.582	52.65333
610.785	68.91669
610.988	57.63393
611.19	63.6407
611.393	46.36164
611.596	56.04406
611.799	45.4925
612.001	70.81623
612.204	51.61061
612.407	51.42378
612.609	56.60443
612.812	69.59837
613.015	55.75518
613.217	60.16189
613.42	51.71054
613.623	58.00315
613.825	55.28167
614.028	71.80611
614.23	54.53881
614.433	56.84552
614.636	51.66926
614.838	72.30972
615.041	63.94469
615.243	44.40822
615.446	38.92745
615.648	48.01074
615.85	47.50233
616.053	44.74502
616.255	46.67452
616.458	53.65691
616.66	42.66979
616.863	41.19639
617.065	40.69872
617.267	53.47444
617.47	42.22865
617.672	45.56855
617.874	36.2236
618.077	49.78358
618.279	47.88255
618.481	53.85023
618.683	38.72967
618.886	44.84498
619.088	59.55815
619.29	62.08376
619.492	42.34383
619.694	49.88786
619.897	44.4017
620.099	41.43762
620.301	29.47365
620.503	32.68688
620.705	37.51688
620.907	47.00912
621.109	35.66715
621.311	46.47897
621.513	51.77788
621.715	53.32456
621.917	43.589
622.119	46.16391
622.321	45.80539
622.523	48.78637
622.725	41.13771
622.927	45.67068
623.129	33.43905
623.331	46.23344
623.533	34.00859
623.735	51.44551
623.937	42.53071
624.139	37.57774
624.341	30.98248
624.542	33.90642
624.744	21.99779
624.946	38.82965
625.148	33.48687
625.35	38.74054
625.551	32.89558
625.753	33.40861
625.955	30.85639
626.156	43.94755
626.358	36.86481
626.56	41.95049
626.762	41.32244
626.963	46.61151
627.165	32.08035
627.366	47.79565
627.568	32.97601
627.77	41.28984
627.971	32.87384
628.173	47.92601
628.374	28.46481
628.576	40.9117
628.777	38.834
628.979	37.65598
629.18	30.65202
629.382	35.85626
629.583	33.70643
629.785	42.03524
629.986	27.49507
630.188	33.24992
630.389	25.48156
630.591	37.89724
630.792	23.2874
630.993	35.00852
631.195	24.88574
631.396	36.9974
631.597	22.61107
631.799	33.69556
632	35.49108
632.201	30.13241
632.402	29.78455
632.604	45.65112
632.805	26.49921
633.006	37.68858
633.207	32.05209
633.409	40.13367
633.61	24.52259
633.811	35.36935
634.012	30.24329
634.213	32.06296
634.414	31.2238
634.615	35.72584
634.816	37.61469
635.017	38.1385
635.219	28.14302
635.42	38.59492
635.621	32.54558
635.822	43.76284
636.023	33.14992
636.224	37.82769
636.425	23.35917
636.626	34.439
636.826	22.18917
637.027	41.34417
637.228	23.19607
637.429	30.52158
637.63	26.5514
637.831	26.05997
638.032	21.78031
638.233	31.6173
638.433	18.01546
638.634	32.33471
638.835	24.27904
639.036	28.7018
639.237	26.77536
639.437	26.13826
639.638	23.02862
639.839	33.76295
640.039	23.83107
640.24	33.06297
640.441	24.92054
640.641	23.42658
640.842	17.69136
641.043	27.72773
641.243	15.83156
641.444	30.77595
641.645	20.08391
641.845	26.46659
642.046	20.28835
642.246	27.66467
642.447	19.12692
642.647	28.68006
642.848	21.17571
643.048	31.39555
643.249	23.07863
643.449	24.96838
643.65	20.28618
643.85	21.66287
644.05	21.46278
644.251	27.69511
644.451	26.76014
644.651	31.53468
644.852	19.93384
645.052	28.80399
645.252	17.26503
645.453	28.74094
645.653	16.14045
645.853	24.24859
646.054	15.08325
646.254	24.9662
646.454	17.61959
646.654	30.14546
646.854	15.2899
647.055	27.46898
647.255	17.29984
647.455	33.6673
647.655	23.06559
647.855	32.24123
648.055	22.76982
648.255	25.82731
648.455	23.82454
648.655	34.91722
648.856	21.71724
649.056	27.37114
649.256	22.55018
649.456	28.56265
649.656	20.72333
649.856	38.01461
650.055	26.22523
650.255	34.53247
650.455	25.88819
650.655	35.22589
650.855	39.01004
651.055	51.69099
651.255	43.87801
651.455	55.10356
651.655	35.72801
651.854	42.14824
652.054	36.24969
652.254	43.96276
652.454	45.00795
652.654	58.36802
652.853	69.19458
653.053	96.4806
653.253	162.00111
653.452	406.31593
653.652	1421.78236
653.852	3707.5969
654.051	7239.08422
654.251	12366.72961
654.451	18567.44996
654.65	25621.38912
654.85	36334.63762
655.049	55478.16792
655.249	63557.12336
655.449	53829.67321
655.648	19040.10854
655.848	5685.86213
656.047	3169.68296
656.247	2438.72359
656.446	1953.63996
656.645	1409.04241
656.845	972.95385
657.044	626.79582
657.244	408.44413
657.443	265.51247
657.643	191.08872
657.842	135.93245
658.041	112.76972
658.241	98.87481
658.44	84.7385
658.639	73.83785
658.839	66.92583
659.038	67.9571
659.237	60.41597
659.436	59.41265
659.636	48.08461
659.835	50.4375
660.034	50.04645
660.233	48.70598
660.432	39.65771
660.631	49.68147
660.831	45.96618
661.03	44.67114
661.229	38.54276
661.428	45.42514
661.627	34.49986
661.826	43.45427
662.025	32.89992
662.224	41.26376
662.423	33.52383
662.622	34.89983
662.821	30.99335
663.02	37.37125
663.219	29.41712
663.418	40.87258
663.617	28.62136
663.816	31.29337
664.015	25.3076
664.214	36.54312
664.412	29.27797
664.611	36.18013
664.81	27.45811
665.009	36.80178
665.208	25.39024
665.406	32.4521
665.605	22.67849
665.804	30.6368
666.003	24.6074
666.201	23.3048
666.4	20.69288
666.599	28.49308
666.798	25.49461
666.996	27.66685
667.195	20.56239
667.394	25.45547
667.592	21.10394
667.791	24.74005
667.989	24.20293
668.188	30.14981
668.386	29.60845
668.585	28.32348
668.783	26.06432
668.982	27.76034
669.18	25.83601
669.379	28.66484
669.577	17.31506
669.776	27.63641
669.974	21.31707
670.173	30.53462
670.371	17.98501
670.57	27.38201
670.768	23.25696
670.966	32.23036
671.165	27.07977
671.363	25.7512
671.561	22.20439
671.76	31.27598
671.958	26.8906
672.156	27.5603
672.354	21.3062
672.553	26.87538
672.751	14.74389
672.949	25.58811
673.147	18.60273
673.345	18.82676
673.543	19.15519
673.742	21.76073
673.94	14.90704
674.138	26.29699
674.336	11.95056
674.534	22.56757
674.732	20.56674
674.93	26.83842
675.128	13.30593
675.326	25.75338
675.524	13.78453
675.722	25.43807
675.92	18.77021
676.118	19.91426
676.316	13.19715
676.514	18.40045
676.712	11.94185
676.91	20.19265
677.108	18.45265
677.305	32.42166
677.503	13.05792
677.701	24.65089
677.899	15.44
678.097	20.36665
678.295	12.47052
678.492	19.01817
678.69	19.78811
678.888	19.90774
679.085	21.92384
679.283	29.03663
679.481	13.58221
679.679	18.77021
679.876	14.29358
680.074	25.27716
680.271	8.25394
680.469	17.80012
680.667	12.80121
680.864	26.13608
681.062	18.74194
681.259	21.95429
681.457	11.98537
681.654	23.92893
681.852	15.1224
682.049	19.40097
682.247	6.67853
682.444	18.10464
682.642	15.58575
682.839	19.22914
683.037	12.37915
683.234	25.42285
683.431	12.54884
683.629	20.17961
683.826	13.42558
684.023	25.53593
684.221	26.20131
684.418	28.08431
684.615	24.22685
684.813	29.01707
685.01	21.77596
685.207	25.6403
685.404	11.94838
685.601	22.3066
685.799	18.34825
685.996	22.41099
686.193	15.38997
686.39	24.34645
686.587	15.98165
686.784	22.67631
686.981	13.80193
687.179	22.83942
687.376	16.08824
687.573	21.33229
687.77	12.25079
687.967	19.52059
688.164	16.53852
688.361	19.79899
688.558	11.04549
688.755	20.27095
688.952	18.79196
689.148	26.83189
689.345	16.20788
689.542	17.77402
689.739	11.92227
689.936	27.37114
690.133	11.22824
690.33	20.59066
690.526	12.08544
690.723	33.326
690.92	14.26313
691.117	22.96337
691.314	12.95784
691.51	21.75204
691.707	14.40018
691.904	27.47333
692.1	15.79893
692.297	20.371
692.494	11.22389
692.69	26.9167
692.887	21.39754
693.084	23.46138
693.28	11.62421
693.477	18.90941
693.673	4.88324
693.87	18.05896
694.066	6.96142
694.263	17.98066
694.459	11.97231
694.656	22.68936
694.852	12.46182
695.049	18.51355
695.245	8.83708
695.442	16.70601
695.638	8.41713
695.834	16.48849
696.031	13.38859
696.227	23.18519
696.423	16.49501
696.62	29.9824
696.816	18.4396
697.012	19.17042
697.209	11.411
697.405	22.38055
697.601	16.65163
697.797	21.69984
697.994	12.32476
698.19	17.53475
698.386	11.39795
698.582	21.2801
698.778	11.64815
698.974	17.75662
699.17	11.31745
699.367	14.42628
699.563	13.07967
699.759	17.68701
699.955	9.1504
700.151	19.34659
700.347	10.83445
700.543	19.44664
700.739	10.16432
700.935	18.98336
701.131	6.02136
701.327	19.21174
701.523	21.33664
701.718	18.66363
701.914	9.36146
702.11	23.05036
702.306	15.69886
702.502	12.9709
702.698	3.75377
702.894	16.5755
703.089	4.33483
703.285	18.88331
703.481	11.411
703.677	18.21122
703.872	8.82838
704.068	15.69234
704.264	8.20389
704.459	9.75745
704.655	5.84945
704.851	10.14256
705.046	2.71567
705.242	11.43928
705.438	7.72301
705.633	17.87843
705.829	10.07729
706.024	25.14234
706.22	16.1274
706.415	24.00939
706.611	11.04766
706.806	23.33525
707.002	15.11588
707.197	21.06261
707.393	11.34573
707.588	11.13687
707.784	13.48214
707.979	13.82369
708.174	6.49139
708.37	14.72431
708.565	10.42976
708.76	13.57351
708.956	10.10123
709.151	16.57115
709.346	4.87889
709.542	13.81064
709.737	6.20633
709.932	21.59327
710.127	11.21084
710.322	16.16873
710.518	6.03877
710.713	12.01582
710.908	9.49853
711.103	13.88895
711.298	8.87624
711.493	16.86915
711.688	4.9877
711.883	16.65598
712.078	13.73885
712.273	20.44495
712.468	8.54986
712.663	13.19933
712.858	7.8601
713.053	19.32267
713.248	10.66692
713.443	19.16389
713.638	10.39278
713.833	16.408
714.028	6.53056
714.223	17.68049
714.418	12.03105
714.613	15.105
714.807	15.1311
715.002	17.68266
715.197	9.42891
715.392	9.16998
715.587	4.25867
715.781	21.41059
715.976	8.35838
716.171	19.07037
716.365	8.14297
716.56	18.68321
716.755	6.89614
716.949	14.45456
717.144	9.2766
717.339	14.87441
717.533	11.32833
717.728	25.70119
717.922	10.92583
718.117	16.15132
718.312	8.35621
718.506	17.07362
718.701	11.9288
718.895	22.13045
719.089	12.12678
719.284	18.02416
719.478	6.99841
719.673	12.15506
719.867	11.69383
720.062	20.86035
720.256	9.58557
720.45	17.05839
720.645	11.30004
720.839	15.36387
721.033	5.89732
721.228	15.2725
721.422	6.74817
721.616	16.95181
721.81	7.18119
722.005	19.10952
722.199	14.04341
722.393	14.02383
722.587	0.75686
722.781	17.24546
722.975	13.27764
723.169	14.77217
723.364	8.53898
723.558	14.82438
723.752	8.52593
723.946	14.02601
724.14	6.03007
724.334	16.90178
724.528	9.64866
724.722	19.39444
724.916	10.22089
725.11	19.22914
725.304	11.24347
725.498	21.22355
725.692	9.90323
725.885	18.06984
726.079	10.89972
726.273	15.69016
726.467	8.52375
726.661	9.69436
726.855	11.20649
727.048	23.03514
727.242	9.41803
727.436	18.08289
727.63	11.33268
727.823	15.83373
728.017	8.64995
728.211	16.35362
728.405	13.25589
728.598	18.08506
728.792	13.86502
728.986	22.07608
729.179	5.90168
729.373	17.62611
729.566	9.12429
729.76	19.49232
729.953	10.53855
730.147	22.94163
730.34	17.78707
730.534	31.95426
730.727	11.78956
730.921	18.62231
731.114	13.34508
731.308	20.17961
731.501	10.84097
731.695	13.8846
731.888	11.02591
732.081	15.52919
732.275	12.57277
732.468	20.80163
732.661	10.91712
732.855	15.48133
733.048	6.66765
733.241	18.56793
733.434	11.99842
733.628	22.66544
733.821	18.68756
734.014	23.08298
734.207	13.6279
734.4	13.40382
734.594	12.42919
734.787	22.25876
734.98	11.83742
735.173	24.58348
735.366	7.06587
735.559	17.99371
735.752	5.19008
735.945	12.84472
736.138	3.33375
736.331	18.10029
736.524	15.2638
736.717	19.58367
736.91	5.79505
737.103	14.32621
737.296	8.06028
737.489	16.78214
737.682	0.70463
737.875	17.68919
738.067	7.91232
738.26	20.55152
738.453	11.55024
738.646	26.12956
738.839	11.78086
739.031	21.45191
739.224	8.42584
739.417	18.52008
739.61	9.50506
739.802	18.88549
739.995	2.90283
740.188	18.91376
740.38	14.06081
740.573	12.99265
740.765	6.21939
740.958	11.68296
741.151	10.32533
741.343	12.588
741.536	7.88403
741.728	14.2305
741.921	8.17996
742.113	11.02808
742.306	1.93216
742.498	13.32768
742.691	10.02725
742.883	11.21519
743.076	4.41535
743.268	10.57336
743.46	8.49982
743.653	10.42324
743.845	8.61514
744.037	17.55651
744.23	4.57204
744.422	17.68049
744.614	6.11929
744.807	7.74912
744.999	7.04193
745.191	15.64666
745.383	8.38885
745.575	12.38785
745.768	11.46757
745.96	11.79391
746.152	6.12581
746.344	17.05187
746.536	11.13469
746.728	17.87408
746.92	6.7721
747.112	16.14697
747.304	9.05684
747.496	8.95675
747.688	4.78096
747.88	10.65386
748.072	10.79311
748.264	16.65163
748.456	2.15416
748.648	12.66197
748.84	4.31525
749.032	12.76857
749.224	7.47495
749.416	20.38405
749.608	11.95491
749.799	18.32867
749.991	10.66909
750.183	22.45884
750.375	7.96889
750.567	17.99588
750.758	2.2151
750.95	15.55312
751.142	9.14605
751.333	19.33789
751.525	9.72699
751.717	11.81567
751.908	7.94278
752.1	15.34864
752.292	8.34533
752.483	14.83526
752.675	9.9511
752.866	17.1367
753.058	17.65656
753.249	20.3623
753.441	8.16038
753.632	12.55102
753.824	3.90394
754.015	14.35449
754.207	12.21163
754.398	20.8473
754.589	5.96913
754.781	14.75694
754.972	4.5481
755.164	15.14416
755.355	10.79963
755.546	14.9549
755.738	5.70365
755.929	19.99039
756.12	17.28679
756.311	25.40546
756.503	14.75912
756.694	18.77239
756.885	13.80411
757.076	26.58401
757.267	19.07907
757.458	22.11957
757.65	9.4028
757.841	20.63199
758.032	13.98032
758.223	25.82731
758.414	15.94902
758.605	21.47583
758.796	8.51722
758.987	21.11046
759.178	13.22978
759.369	14.76999
759.56	2.90066
759.751	17.41947
759.942	12.6685
760.133	15.90117
760.324	16.1535
760.514	16.93658
760.705	13.0775
760.896	19.87511
761.087	6.11929
761.278	14.66558
761.468	9.75745
761.659	19.72504
761.85	8.88712
762.041	14.30664
762.231	11.57417
762.422	13.19498
762.613	9.56381
762.803	15.54877
762.994	18.61143
763.185	20.53629
763.375	7.77741
763.566	17.07362
763.757	10.93453
763.947	18.02198
764.138	13.22978
764.328	21.97386
764.519	17.12365
764.709	19.98386
764.9	8.12991
765.09	17.25198
765.281	8.28005
765.471	17.26938
765.661	7.25518
765.852	14.86136
766.042	6.40653
766.232	7.14203
766.423	4.55463
766.613	12.28125
766.803	-0.99312
766.994	13.01223
767.184	6.65025
767.374	21.48018
767.564	13.40165
767.755	18.22427
767.945	10.19696
768.135	11.79391
768.325	17.56086
768.515	25.59681
768.706	8.24741
768.896	18.03503
769.086	9.18957
769.276	24.15509
769.466	2.16504
769.656	13.80846
769.846	8.29528
770.036	13.44516
770.226	11.5894
770.416	16.51024
770.606	10.32533
770.796	26.32526
770.986	10.1839
771.176	14.45456
771.366	7.62727
771.555	14.30011
771.745	0.57403
771.935	16.04909
772.125	3.44256
772.315	13.90636
772.504	6.32384
772.694	12.58365
772.884	7.56634
773.074	12.82514
773.263	5.71671
773.453	19.60759
773.643	9.40497
773.832	14.45021
774.022	1.27705
774.212	13.24719
774.401	0.30414
774.591	13.23631
774.781	2.71131
774.97	15.45958
775.16	-2.04013
775.349	10.39713
775.539	0.72421
775.728	10.73872
775.918	9.95545
776.107	27.52117
776.297	27.54074
776.486	56.78688
776.675	55.72911
776.865	51.03709
777.054	17.78925
777.243	21.80206
777.433	10.99762
777.622	17.78272
777.811	6.78298
778.001	16.53199
778.19	11.67643
778.379	13.91723
778.568	6.34125
778.758	16.59942
778.947	3.30328
779.136	14.44369
779.325	10.97587
779.514	11.30439
779.703	7.25083
779.892	14.2392
780.082	6.72423
780.271	14.95055
780.46	9.55728
780.649	16.36885
780.838	8.25612
781.027	18.11551
781.216	7.46625
781.405	10.62775
781.594	3.64496
781.783	17.56956
781.971	13.95204
782.16	19.04209
782.349	11.78521
782.538	14.2479
782.727	5.00728
782.916	15.94685
783.105	11.26306
783.293	15.70757
783.482	12.79468
783.671	16.25356
783.86	5.26625
784.048	9.2766
784.237	-4.47168
784.426	8.08422
784.614	8.98939
784.803	17.79577
784.992	-1.79198
785.18	11.75258
785.369	5.81681
785.557	16.79954
785.746	10.27746
785.935	11.19126
786.123	-0.77546
786.312	9.00897
786.5	5.11609
786.689	10.94976
786.877	7.07457
787.065	12.66197
787.254	1.29228
787.442	11.11076
787.631	1.18999
787.819	12.25732
788.007	4.03234
788.196	12.53144
788.384	9.43543
788.572	17.4086
788.761	-0.06153
788.949	13.18845
789.137	6.14975
789.325	12.31606
789.513	4.27172
789.702	14.45674
789.89	1.97569
790.078	13.04486
790.266	4.61992
790.454	11.55459
790.642	-0.32489
790.83	8.39755
791.018	4.94635
791.207	11.05202
791.395	6.98971
791.583	9.03291
791.771	5.76893
791.959	14.26965
792.146	-1.63743
792.334	13.08402
792.522	2.3805
792.71	10.69085
792.898	3.01383
793.086	13.63007
793.274	6.78298
793.462	18.21992
793.65	12.25732
793.837	12.70113
794.025	4.27608
794.213	16.26879
794.401	5.32935
794.588	15.58575
794.776	0.41515
794.964	12.82731
795.151	3.91046
795.339	9.08077
795.527	-2.97179
795.714	9.52682
795.902	2.51762
796.089	12.53361
796.277	0.54139
796.465	12.03105
796.652	2.76137
796.84	11.82655
797.027	2.03881
797.215	6.17151
797.402	5.58614
797.59	14.19351
797.777	0.33679
797.964	7.40967
798.152	0.52397
798.339	13.64095
798.526	3.14005
798.714	8.20172
798.901	3.50568
799.088	10.83445
799.276	2.79401
799.463	7.61204
799.65	0.86787
799.837	11.04331
800.025	0.34332
800.212	13.82369
800.399	1.47728
800.586	12.47052
800.773	4.0171
800.96	10.10775
801.148	7.43796
801.335	11.97014
801.522	5.8451
801.709	9.47025
801.896	2.81143
802.083	10.52985
802.27	0.13219
802.457	12.19857
802.644	-0.70798
802.831	13.21238
803.018	1.55128
803.204	13.36031
803.391	-1.36534
803.578	6.63719
803.765	-1.12155
803.952	9.19609
804.139	4.76355
804.326	10.47763
804.512	0.8091
804.699	13.94116
804.886	-4.33671
805.073	10.64951
805.259	3.58837
805.446	20.75813
805.633	8.23653
805.819	17.78055
806.006	5.53609
806.192	12.55319
806.379	2.93983
806.566	8.19737
806.752	5.58179
806.939	11.03461
807.125	0.8091
807.312	13.03181
807.498	0.31502
807.685	15.50309
807.871	1.33799
808.058	15.81198
808.244	6.12799
808.43	11.2587
808.617	2.35874
808.803	9.20045
808.99	0.54139
809.176	9.00897
809.362	1.80375
809.549	7.82093
809.735	-0.66445
809.921	11.55242
810.107	4.06716
810.293	9.58992
810.48	3.14005
810.666	13.47779
810.852	6.78951
811.038	6.22591
811.224	1.01152
811.41	7.05716
811.597	7.91667
811.783	6.43917
811.969	4.24343
812.155	11.25218
812.341	0.47827
812.527	11.19126
812.713	-1.11502
812.899	11.38272
813.085	-0.22912
813.271	12.47052
813.456	8.61732
813.642	10.71261
813.828	1.99963
814.014	12.17029
814.2	3.52309
814.386	12.55972
814.572	-3.44853
814.757	18.28952
814.943	9.39627
815.129	12.88823
815.315	2.18463
815.5	9.33535
815.686	1.14428
815.872	5.66666
816.057	3.3468
816.243	16.68426
816.429	5.78634
816.614	11.15862
816.8	1.8364
816.985	11.19561
817.171	3.31634
817.356	15.68581
817.542	2.92895
817.727	14.73519
817.913	-0.13771
818.098	10.928
818.284	1.27705
818.469	8.84796
818.655	0.20619
818.84	11.35226
819.025	-1.14767
819.211	12.27472
819.396	4.83971
819.581	6.73946
819.767	8.5825
819.952	13.37772
820.137	5.32283
820.322	19.94254
820.508	5.44904
820.693	8.43236
820.878	6.44787
821.063	7.4619
821.248	5.79505
821.433	6.36083
821.618	3.17705
821.804	7.34657
821.989	1.9474
822.174	10.29704
822.359	10.75177
822.544	6.27596
822.729	3.93876
822.914	9.71611
823.099	0.55227
823.284	8.93717
823.469	-3.40281
823.653	6.68071
823.838	3.60361
824.023	14.63947
824.208	-1.15202
824.393	6.71335
824.578	2.6569
824.762	11.69383
824.947	4.16726
825.132	11.83307
825.317	0.61756
825.501	12.7925
825.686	-0.42284
825.871	8.45412
826.056	4.28043
826.24	19.11169
826.425	4.65256
826.609	7.06151
826.794	4.3196
826.979	11.88529
827.163	1.62746
827.348	8.5107
827.532	-1.60042
827.717	8.45848
827.901	-4.23221
828.086	13.8585
828.27	1.52081
828.455	10.18173
828.639	4.58075
828.823	11.98319
829.008	2.40009
829.192	7.34439
829.376	3.19881
829.561	8.37144
829.745	-7.76562
829.929	8.00153
830.114	1.30969
830.298	12.4814
830.482	-0.89735
830.666	9.81402
830.85	1.26617
831.035	14.75912
831.219	-1.76368
831.403	6.45875
831.587	-2.54949
831.771	9.40715
831.955	5.79505
832.139	11.55459
832.323	2.26515
832.507	9.87495
832.691	-2.52555
832.875	7.32481
833.059	2.35874
833.243	6.65895
833.427	1.08987
833.611	9.76398
833.795	0.81998
833.979	11.73299
834.163	-1.2565
834.346	10.87578
834.53	3.73854
834.714	12.82949
834.898	2.58073
835.082	12.27472
835.265	0.84175
835.449	8.88495
835.633	-4.90272
835.816	11.6612
836	-6.74888
836.184	8.37797
836.367	2.05404
836.551	8.96328
836.735	-0.39019
836.918	7.31828
837.102	4.02798
837.285	7.61639
837.469	-5.65162
837.652	13.11013
837.836	1.50122
838.019	8.71088
838.203	0.84175
838.386	2.65473
838.569	1.70364
838.753	11.24783
838.936	0.96581
839.12	5.56002
839.303	0.18878
839.486	9.331
839.669	-1.09978
839.853	9.77268
840.036	0.73945
840.219	7.32699
840.402	-1.25215
840.586	16.51024
840.769	3.32287
840.952	6.39782
841.135	1.8821
841.318	5.05951
841.501	0.9854
841.684	9.63126
841.868	4.03016
842.051	7.37486
842.234	0.60015
842.417	7.92755
842.6	1.64705
842.783	9.7618
842.966	5.23796
843.149	14.06951
843.331	3.76683
843.514	23.91588
843.697	22.03041
843.88	33.10427
844.063	15.30731
844.246	16.59725
844.429	1.84728
844.611	11.53501
844.794	4.55463
844.977	10.38625
845.16	2.58726
845.342	12.21163
845.525	-3.22649
845.708	1.71887
845.89	2.19116
846.073	6.07359
846.256	0.20619
846.438	8.98286
846.621	4.47411
846.803	14.00208
846.986	3.74071
847.168	5.84292
847.351	1.47511
847.533	7.32263
847.716	-1.70491
847.898	13.68446
848.081	-2.65833
848.263	6.58496
848.446	-4.2148
848.628	11.43711
848.81	-2.65616
848.993	7.07675
849.175	-1.58736
849.357	10.67344
849.539	0.50221
849.722	10.59294
849.904	-0.94524
850.086	7.23995
850.268	7.44014
850.451	14.22397
850.633	3.11394
850.815	11.27611
850.997	9.03073
851.179	13.36684
851.361	1.37717
851.543	7.17684
851.725	2.15198
851.907	9.36146
852.089	5.92779
852.271	13.95204
852.453	5.27277
852.635	13.87372
852.817	-4.29317
852.999	13.31028
853.181	1.13122
853.363	11.90052
853.545	2.50891
853.727	12.59453
853.908	-2.25998
854.09	10.14474
854.272	8.47153
854.454	5.33806
854.636	7.70561
854.817	3.69719
854.999	2.56985
855.181	8.70217
855.362	5.16397
855.544	10.9193
855.726	1.17693
855.907	4.17814
856.089	0.22578
856.27	7.57505
856.452	-0.9953
856.634	12.30735
856.815	0.16049
856.997	8.97198
857.178	1.62528
857.36	10.7583
857.541	-1.50247
857.722	7.99936
857.904	-1.01489
858.085	7.7513
858.267	1.89516
858.448	13.34291
858.629	4.14985
858.811	5.87556
858.992	4.85277
859.173	7.09198
859.354	-0.74499
859.536	9.72699
859.717	-2.84989
859.898	9.62038
860.079	-1.56342
860.26	9.79444
860.441	4.09545
860.623	12.3922
860.804	-5.58195
860.985	10.22742
861.166	-0.35754
861.347	6.49139
861.528	-1.11284
861.709	12.80773
861.89	-1.2195
862.071	10.20131
862.252	1.11381
862.433	9.9685
862.614	9.50941
862.794	5.04645
862.975	2.29345
863.156	16.47326
863.337	-4.24092
863.518	7.87751
863.699	2.60685
863.879	10.13169
864.06	-1.26739
864.241	12.20075
864.422	2.78096
864.602	7.50106
864.783	0.14525
864.964	9.50288
865.144	3.92135
865.325	8.25829
865.506	-0.47943
865.686	1.4577
865.867	3.93223
866.047	10.98457
866.228	-1.36752
866.408	3.94093
866.589	0.3172
866.769	12.25296
866.95	3.03994
867.13	7.42491
867.31	8.03852
867.491	14.24355
867.671	-0.80375
867.852	6.64807
868.032	3.65366
868.212	11.97666
868.393	2.82231
868.573	13.17322
868.753	0.48262
868.933	12.39003
869.113	2.28909
869.294	8.9524
869.474	-1.56995
869.654	9.16563
869.834	-1.14985
870.014	11.48932
870.194	0.12784
870.374	11.93533
870.555	-1.9117
870.735	5.95825
870.915	-2.59738
871.095	12.15506
871.275	1.08987
871.455	10.82574
871.634	-0.33795
871.814	9.38757
871.994	-1.70273
872.174	6.91355
872.354	0.65892
872.534	8.86972
872.714	-1.39364
872.894	10.17303
873.073	3.74724
873.253	11.74387
873.433	-3.6488
873.613	10.57336
873.792	-1.15202
873.972	6.78516
874.152	1.43158
874.331	9.58992
874.511	3.17052
874.691	9.64214
874.87	-6.48544
875.05	5.71671
875.229	-0.64268
875.409	9.34187
875.588	-0.09635
875.768	7.88838
875.947	4.93547
876.127	9.29618
876.306	4.94852
876.486	5.46863
876.665	2.06057
876.844	9.50506
877.024	2.8963
877.203	8.86536
877.382	1.03981
877.562	7.74695
877.741	-3.82731
877.92	10.15997
878.1	3.19664
878.279	12.22903
878.458	3.87347
878.637	11.87223
878.816	-0.23348
878.996	8.62167
879.175	5.13785
879.354	9.74657
879.533	5.03557
879.712	6.14105
879.891	-0.64486
880.07	11.37401
880.249	0.74163
880.428	10.75395
880.607	1.88863
880.786	6.34995
880.965	3.23799
881.144	10.86708
881.323	0.11696
881.502	11.84395
881.68	1.58828
881.859	6.85044
882.038	2.3435
882.217	10.79093
882.396	-4.18867
882.574	6.80692
882.753	-0.16165
882.932	6.69812
883.111	2.03445
883.289	13.79323
883.468	-0.49902
883.647	9.6095
883.825	-3.39846
884.004	14.87224
884.182	1.48817
884.361	10.89319
884.539	1.9474
884.718	11.55242
884.896	2.33262
885.075	9.23526
885.253	2.5372
885.432	9.17216
885.61	-4.06241
885.789	5.65577
885.967	-1.47417
886.145	12.60106
886.324	-1.50682
886.502	5.18137
886.68	-0.68839
886.859	7.79917
887.037	2.70696
887.215	10.15997
887.393	0.90922
887.572	11.46757
887.75	-1.64613
887.928	8.97851
888.106	5.22055
888.284	10.62775
888.462	1.35758
888.64	11.26741
888.819	3.5035
888.997	8.91759
889.175	1.41634
889.353	5.48168
889.531	3.54703
889.709	7.10939
889.887	0.84392
890.065	11.61551
890.242	4.60686
890.42	10.68215
890.598	0.64151
890.776	10.93888
890.954	2.41533
891.132	7.90579
891.309	3.06606
891.487	9.20915
891.665	-1.03883
891.843	2.48497
892.02	1.85816
892.198	8.97198
892.376	3.05518
892.553	8.56727
892.731	6.89614
892.909	7.77959
893.086	5.47298
893.264	8.16255
893.441	-1.08237
893.619	9.27442
893.797	4.55681
893.974	5.08127
894.151	0.58274
894.329	5.09433
894.506	2.81578
894.684	9.33317
894.861	1.6884
895.039	8.85449
895.216	-0.28789
895.393	8.20172
895.571	1.38805
895.748	6.49139
895.925	7.797
896.102	10.96281
896.28	2.72219
896.457	4.74614
896.634	-4.7438
896.811	8.39537
896.988	-3.11764
897.166	12.0898
897.343	-2.68228
897.52	11.54807
897.697	-1.98353
897.874	15.40737
898.051	-0.82334
898.228	7.24212
898.405	1.92128
898.582	3.48174
898.759	-4.81782
898.936	12.02235
899.113	3.36422
899.29	11.14557
899.467	4.28478
899.643	9.76398
899.82	-0.08547
899.997	11.60246
900.174	-1.80286
900.351	8.40408
900.527	6.26943
900.704	10.92365
900.881	0.78951
901.058	10.09252
901.234	0.61974
901.411	12.64892
901.588	2.08016
901.764	9.04814
901.941	-0.89517
902.117	8.88712
902.294	1.42505
902.471	6.29555
902.647	-1.18685
902.824	11.19343
903	5.44251
903.176	8.34533
903.353	0.31938
903.529	10.56031
903.706	-0.08982
903.882	4.36095
904.058	-0.83423
904.235	7.48366
904.411	-2.74758
904.587	5.90385
904.764	1.67969
904.94	5.78634
905.116	1.47728
905.292	8.16255
905.469	2.8506
905.645	6.82868
905.821	-1.24127
905.997	8.55639
906.173	-2.26869
906.349	8.68477
906.525	1.36846
906.702	5.70365
906.878	-1.59825
907.054	10.0947
907.23	-0.34013
907.406	11.16297
907.582	2.24557
907.757	8.35186
907.933	-1.01707
908.109	8.77398
908.285	2.59379
908.461	9.27878
908.637	-4.17997
908.813	5.40552
908.988	-0.53385
909.164	10.49721
909.34	1.18781
909.516	7.99065
909.691	6.17804
909.867	10.08599
910.043	-0.05064
910.219	6.73076
910.394	1.33364
910.57	6.28902
910.745	-0.73846
910.921	10.90624
911.097	0.92881
911.272	6.8091
911.448	0.63062
911.623	4.88541
911.799	-2.81289
911.974	6.13234
912.149	-1.55471
912.325	6.07141
912.5	2.79184
912.676	4.71567
912.851	-7.03626
913.026	7.54458
913.202	-1.79415
913.377	4.10633
913.552	-1.36098
913.727	11.01938
913.903	4.52852
914.078	8.09292
914.253	-0.24218
914.428	8.27788
914.603	-2.61915
914.779	5.39464
914.954	2.48062
915.129	14.16306
915.304	5.62748
915.479	12.70983
915.654	-1.43717
915.829	13.98467
916.004	1.1334
916.179	10.77353
916.354	5.42946
916.529	7.4793
916.704	-0.81028
916.879	11.46757
917.053	3.43603
917.228	8.63255
917.403	0.47609
917.578	10.40801
917.753	1.04852
917.927	7.46842
918.102	-4.91796
918.277	8.86972
918.452	-2.20991
918.626	9.64214
918.801	-0.7624
918.976	7.62509
919.15	-0.63398
919.325	12.50316
919.499	2.86583
919.674	8.42801
919.849	-1.09108
920.023	11.89399
920.198	-0.60133
920.372	5.53391
920.547	-2.41018
920.721	6.48704
920.895	4.33919
921.07	5.62096
921.244	-0.3336
921.419	15.92509
921.593	-4.1016
921.767	9.84448
921.942	-1.39581
922.116	5.52956
922.29	-1.31963
922.464	12.5706
922.639	-2.81289
922.813	3.21187
922.987	-1.88775
923.161	8.11686
923.335	-0.30313
923.509	8.00153
923.683	2.80054
923.858	9.43108
924.032	2.29127
924.206	12.55319
924.38	-2.13373
924.554	9.01985
924.728	1.02675
924.902	10.6778
925.075	2.42403
925.249	7.80135
925.423	3.96705
925.597	13.07315
925.771	4.54375
925.945	9.2048
926.119	3.82124
926.292	8.37362
926.466	3.11611
926.64	4.98987
926.814	1.81463
926.987	3.54703
927.161	3.61667
927.335	2.83319
927.508	1.30534
927.682	6.08447
927.856	-5.01157
928.029	8.36926
928.203	6.61543
928.376	12.56842
928.55	-1.18032
928.723	10.86055
928.897	-3.4224
929.07	10.36014
929.244	-2.02053
929.417	5.62096
929.59	-5.14001
929.764	2.58073
929.937	1.97351
930.111	4.10198
930.284	-2.76064
930.457	7.82528
930.63	5.57091
930.804	9.54422
930.977	0.93316
931.15	11.12164
931.323	2.29345
931.497	9.75528
931.67	-0.00058
931.843	6.04747
932.016	-2.35793
932.189	7.59898
932.362	1.55346
932.535	10.30575
932.708	-0.75587
932.881	9.5464
933.054	-1.04101
933.227	8.31269
933.4	-0.62527
933.573	4.80925
933.746	-1.91387
933.919	11.09118
934.092	-1.48506
934.264	14.63947
934.437	0.71768
934.61	3.72766
934.783	-1.6026
934.956	3.79512
935.128	1.23134
935.301	11.63727
935.474	-2.09237
935.646	3.44474
935.819	-2.5299
935.992	7.03758
936.164	-2.40365
936.337	6.51098
936.51	-0.8364
936.682	3.25322
936.855	-1.5743
937.027	10.83227
937.2	-0.17688
937.372	8.07769
937.545	0.49132
937.717	8.19084
937.889	-3.8469
938.062	12.12678
938.234	1.65575
938.406	6.97665
938.579	-3.09152
938.751	8.79791
938.923	-3.31574
939.096	7.75348
939.268	-2.60827
939.44	9.05031
939.612	-0.39019
939.784	10.85403
939.957	3.20752
940.129	6.27161
940.301	0.46521
940.473	7.20513
940.645	-0.35972
940.817	12.26384
940.989	1.84075
941.161	7.12027
941.333	0.82651
941.505	13.29505
941.677	0.57186
941.849	9.11124
942.021	-1.76803
942.193	7.75565
942.365	-6.27426
942.537	10.606
942.708	1.89952
942.88	11.54589
943.052	-4.40201
943.224	6.97883
943.395	1.03546
943.567	7.27041
943.739	1.94522
943.911	2.23033
944.082	-3.28961
944.254	7.04193
944.425	-3.53342
944.597	7.84487
944.769	0.75033
944.94	3.55355
945.112	-1.57648
945.283	10.36449
945.455	0.32155
945.626	6.6546
945.798	-2.52119
945.969	2.30433
946.14	0.36944
946.312	10.15127
946.483	1.69058
946.655	9.01767
946.826	1.04416
946.997	6.28467
947.168	-4.53699
947.34	3.78424
947.511	0.33679
947.682	7.15726
947.853	2.1411
948.025	3.17052
948.196	1.20522
948.367	10.767
948.538	-2.33617
948.709	4.68738
948.88	2.84842
949.051	7.73824
949.222	-1.84204
949.393	12.67938
949.564	-2.4733
949.735	8.16255
949.906	-1.26303
950.077	8.31922
950.248	3.81471
950.419	5.69494
950.59	-5.67121
950.761	10.35144
950.931	-0.2966
951.102	10.6234
951.273	0.37161
951.444	7.82963
951.614	-2.41888
951.785	7.13767
951.956	0.13872
952.126	7.67514
952.297	9.04814
952.468	5.80593
952.638	-2.52555
952.809	4.6678
952.98	-4.56529
953.15	7.19207
953.321	-3.74676
953.491	4.44147
953.662	-0.3336
953.832	4.86583
954.002	1.72105
954.173	6.56973
954.343	0.58056
954.514	1.99963
954.684	-2.74976
954.854	2.88325
955.025	0.04295
955.195	6.50445
955.365	-1.08019
955.535	7.68167
955.706	4.70261
955.876	12.36392
956.046	2.03228
956.216	10.06859
956.386	4.00187
956.557	8.21695
956.727	-2.15985
956.897	8.23871
957.067	-4.045
957.237	8.15602
957.407	-0.6601
957.577	6.87655
957.747	-3.96445
957.917	5.708
958.087	-0.71669
958.257	9.18739
958.427	1.41634
958.596	9.21568
958.766	-0.02235
958.936	3.50568
959.106	-3.63574
959.276	5.75152
959.445	-0.30748
959.615	8.38667
959.785	-5.03769
959.955	8.67606
960.124	-5.94334
960.294	3.51656
960.464	-1.53077
960.633	7.01582
960.803	-0.49249
960.972	7.18119
961.142	-2.03359
961.311	4.17379
961.481	-0.65139
961.65	6.51751
961.82	-3.41805
961.989	10.1839
962.159	-4.22568
962.328	7.67514
962.498	4.26302
962.667	8.64343
962.836	4.02581
963.006	5.66013
963.175	0.32591
963.344	9.72046
963.513	-1.28045
963.683	4.02798
963.852	0.27367
964.021	6.65242
964.19	-4.72203
964.359	11.35443
964.528	1.38152
964.698	1.52952
964.867	-2.66269
965.036	9.07642
965.205	5.39029
965.374	5.94302
965.543	0.1779
965.712	8.56509
965.881	-6.83379
966.05	8.92411
966.219	-3.41152
966.387	3.49915
966.556	2.04751
966.725	9.23526
966.894	1.41634
967.063	11.39142
967.232	3.88435
967.4	3.01383
967.569	-0.91476
967.738	7.70343
967.906	0.2802
968.075	7.37268
968.244	-5.83449
968.412	8.19737
968.581	-0.58174
968.75	4.12374
968.918	1.19434
969.087	5.00075
969.255	0.91793
969.424	5.78852
969.592	1.77981
969.761	7.70996
969.929	1.92563
970.098	10.57989
970.266	-0.81464
970.434	10.73654
970.603	-2.71711
970.771	8.09727
970.939	-2.72799
971.108	8.91976
971.276	-1.7615
971.444	13.0949
971.612	-4.63713
971.781	10.73436
971.949	4.31525
972.117	9.62473
972.285	5.48168
972.453	4.26302
972.621	-5.72781
972.789	5.58831
972.957	-1.38711
973.125	3.32722
973.293	0.25626
973.461	10.50156
973.629	2.0214
973.797	7.92102
973.965	2.23686
974.133	5.22925
974.301	2.78531
974.469	3.77771
974.637	1.1334
974.805	6.30643
974.972	-0.42284
975.14	11.09553
975.308	2.61555
975.476	8.54551
975.643	0.83304
975.811	7.01799
975.979	1.87557
976.146	8.5738
976.314	5.84074
976.482	5.87991
976.649	-0.50338
976.817	9.22438
976.984	0.30414
977.152	8.9524
977.319	4.5394
977.487	11.57853
977.654	6.88526
977.822	4.21949
977.989	-2.49507
978.156	4.83319
978.324	3.02036
978.491	7.67079
978.658	-3.05016
978.826	8.02547
978.993	-3.07193
979.16	7.71649
979.328	-0.96918
979.495	8.1038
979.662	-4.33018
979.829	10.05336
979.996	-5.65597
980.163	8.87624
980.33	-2.90431
980.498	3.52744
980.665	-3.05016
980.832	4.70479
980.999	-0.84729
981.166	6.3543
981.333	1.89952
981.5	7.97542
981.667	2.46974
981.833	1.71016
982	-1.84422
982.167	4.84407
982.334	-3.54431
982.501	4.55028
982.668	-4.56093
982.834	2.4088
983.001	0.48262
983.168	16.15132
983.335	-0.71887
983.501	4.83101
983.668	1.6144
983.835	6.21721
984.001	1.81681
984.168	3.81906
984.334	-1.6592
984.501	11.20866
984.668	-3.04363
984.834	7.58593
985.001	-8.10745
985.167	8.41496
985.334	-0.12247
985.5	4.04104
985.666	-3.14812
985.833	4.21514
985.999	-3.63792
986.165	10.6234
986.332	-3.03928
986.498	6.04312
986.664	-4.05806
986.831	4.49587
986.997	-3.24825
987.163	2.03663
987.329	-0.54256
987.495	6.1541
987.662	1.57087
987.828	3.10523
987.994	3.64931
988.16	13.87372
988.326	-5.70169
988.492	7.56852
988.658	0.27149
988.824	2.63514
988.99	-2.82812
989.156	10.03378
989.322	3.95834
989.488	5.26842
989.654	1.60352
989.82	8.02547
989.985	0.1496
990.151	11.71994
990.317	6.27379
990.483	0.5675
990.648	-1.32833
990.814	6.17804
990.98	-0.80593
991.146	7.53153
991.311	3.90176
991.477	9.52682
991.643	-1.2195
991.808	7.55764
991.974	-6.52463
992.139	9.29183
992.305	-3.64227
992.47	4.04975
992.636	0.43038
992.801	11.92445
992.967	0.29979
993.132	5.73411
993.298	7.59681
993.463	8.70435
993.628	2.24121
993.794	7.66209
993.959	0.89616
994.124	1.68622
994.29	3.52309
994.455	11.35878
994.62	-3.55955
994.785	9.72046
994.95	-1.27827
995.116	8.41931
995.281	-2.50813
995.446	6.95054
995.611	0.60668
995.776	6.71988
995.941	-2.87819
996.106	8.32357
996.271	1.20958
996.436	5.58614
996.601	2.21727
996.766	7.55546
996.931	-4.1016
997.096	12.08109
997.261	2.90719
997.425	7.22036
997.59	-3.64009
997.755	9.2766
997.92	0.20619
998.085	6.66548
998.249	1.40111
998.414	3.45127
998.579	-2.8869
998.744	13.2102
998.908	-1.67661
999.073	6.72641
999.237	4.4567
999.402	5.98219
999.567	-1.52206
999.731	4.80707
999.896	-3.06758
1000.06	9.32882
1000.225	-0.81899
1000.389	9.71611
1000.553	-2.0053
1000.718	7.89491
1000.882	-1.78762
1001.047	2.68084
1001.211	1.44899
1001.375	9.90758
1001.54	4.48717
1001.704	7.43361
1001.868	3.45997
1002.032	11.60246
1002.197	-1.19773
1002.361	1.72322
1002.525	2.57203
1002.689	9.61385
1002.853	-5.70169
1003.017	3.72766
1003.181	-1.71144
1003.345	11.09118
1003.509	1.91475
1003.673	7.63597
1003.837	0.56533
1004.001	9.69653
1004.165	0.43473
1004.329	9.32664
1004.493	1.26834
1004.657	6.85044
1004.821	-1.87687
1004.985	4.44582
1005.149	-4.91143
1005.312	9.44196
1005.476	-0.62962
1005.64	16.64945
1005.804	-2.49943
1005.967	15.06367
1006.131	0.58927
1006.295	7.15508
1006.458	0.23449
1006.622	6.97883
1006.785	-1.59172
1006.949	7.15726
1007.113	-2.84554
1007.276	13.1841
1007.44	-0.7994
1007.603	7.41838
1007.767	1.44681
1007.93	3.36857
1008.093	-1.05625
1008.257	9.48983
1008.42	-0.87341
1008.584	7.03105
1008.747	-2.31222
1008.91	11.03026
1009.073	-6.50504
1009.237	8.93282
1009.4	-2.09019
1009.563	3.4578
1009.726	-2.63003
1009.889	13.79106
1010.053	-1.97918
1010.216	0.56533
1010.379	1.34887
1010.542	12.0093
1010.705	-1.39146
1010.868	13.95204
1011.031	1.81028
1011.194	11.62639
1011.357	-3.77288
1011.52	2.60685
1011.683	-5.23362
1011.846	8.06028
1012.009	-2.06407
1012.171	7.87968
1012.334	-0.08329
1012.497	13.10143
1012.66	-1.18903
1012.823	9.75963
1012.985	0.23014
1013.148	14.43063
1013.311	-7.02102
1013.473	7.31828
1013.636	-3.97316
1013.799	10.44934
1013.961	0.60233
1014.124	1.67752
1014.286	0.39991
1014.449	9.16998
1014.612	1.72322
1014.774	5.29889
1014.936	-1.97918
1015.099	7.94496
1015.261	-5.71475
1015.424	12.82514
1015.586	2.47844
1015.748	12.93391
1015.911	-1.22603
1016.073	14.09997
1016.235	1.2074
1016.398	10.49939
1016.56	-3.28526
1016.722	6.17586
1016.884	0.54356
1017.047	8.48459
1017.209	-2.62568
1017.371	3.65149
1017.533	-0.72975
1017.695	9.95762
1017.857	2.83101
1018.019	14.29358
1018.181	-3.31574
1018.343	3.44909
1018.505	0.11913
1018.667	7.20295
1018.829	-2.68445
1018.991	9.55293
1019.153	-0.07458
1019.315	6.55885
1019.477	-5.95858
1019.638	5.04428
1019.8	-2.18161
1019.962	7.13985
1020.124	0.68068
1020.285	6.90702
1020.447	5.11609
1020.609	5.54262
1020.77	-0.05935
1020.932	6.63501
1021.094	-1.05407
1021.255	7.54458
1021.417	1.70364
1021.578	6.62848
1021.74	-0.07894
1021.901	6.46093
1022.063	-0.45114
1022.224	10.89537
1022.386	-0.3053
1022.547	10.88014
1022.709	4.30001
1022.87	12.07674
1023.031	1.20958
1023.193	4.43712
1023.354	-0.63833
1023.515	7.14203
1023.676	-1.00618
1023.838	9.81185
1023.999	-0.74063
1024.16	5.7994
1024.321	2.35656
1024.482	8.12339
1024.644	-0.54691
1024.805	8.41278
1024.966	1.89299
1025.127	6.05835
1025.288	0.93751
1025.449	12.37697
1025.61	-5.65379
1025.771	6.78516
1025.932	2.95724
1026.093	11.36531
1026.253	-0.30313
1026.414	4.60686
1026.575	-1.47417
1026.736	4.43929
1026.897	3.30328
1027.058	5.42293
1027.218	0.84828
1027.379	2.29998
1027.54	1.40111
1027.7	9.91846
1027.861	-2.39929
1028.022	12.93826
1028.182	-0.20083
1028.343	6.74599
1028.504	0.4195
1028.664	7.43143
1028.825	-5.35554
1028.985	7.00711
1029.146	-2.77588
1029.306	3.19881
1029.466	3.58837
1029.627	13.57786
1029.787	2.73743
1029.948	8.71305
1030.108	-1.33486
1030.268	11.72864
1030.429	-5.51446
1030.589	10.32968
1030.749	0.37814
1030.909	11.59811
1031.07	-1.5373
1031.23	3.57096
1031.39	-3.13941
1031.55	7.34657
1031.71	-2.11849
1031.87	9.52682
1032.03	1.62528
1032.19	6.14105
1032.35	-2.87819
1032.51	4.61339
1032.67	-3.56825
1032.83	3.67325
1032.99	0.34332
1033.15	4.74614
1033.31	0.71333
1033.47	9.57904
1033.63	2.30868
1033.79	5.46645
1033.949	-4.91578
1034.109	4.78966
1034.269	0.47609
1034.429	13.99337
1034.588	-1.5373
1034.748	12.22468
1034.908	-5.96729
1035.067	7.04411
1035.227	-5.27499
1035.387	8.67606
1035.546	-0.63833
1035.706	9.09383
1035.865	2.60902
1036.025	8.56727
1036.184	0.83086
1036.344	7.95584
1036.503	1.16387
1036.662	2.02357
1036.822	2.17157
1036.981	8.90888
1037.14	-2.2578
1037.3	3.4665
1037.459	-1.33051
1037.618	8.16038
1037.778	4.09327
1037.937	11.02591
1038.096	-0.38366
1038.255	5.64489
1038.414	-1.57866
1038.573	12.70113
1038.733	0.46521
1038.892	10.00549
1039.051	0.20402
1039.21	8.01024
1039.369	-2.23821
1039.528	6.76122
1039.687	-0.18559
1039.846	12.72289
1040.005	-5.93246
1040.164	6.50445
1040.322	-2.02053
1040.481	8.83055
1040.64	0.32373
1040.799	11.79609
1040.958	4.50676
1041.116	9.00244
1041.275	-0.10941
1041.434	13.58656
1041.593	-2.45371
1041.751	11.27176
1041.91	0.44344
1042.069	4.0541
1042.227	0.52397
1042.386	10.03813
1042.544	-2.36446
1042.703	7.77088
1042.861	1.40764
1043.02	7.04846
1043.178	1.12687
1043.337	11.93533
1043.495	2.03663
1043.653	11.03896
1043.812	0.3172
1043.97	7.18555
1044.129	0.07995
1044.287	10.05553
1044.445	1.39675
1044.603	4.75702
1044.762	-7.95504
1044.92	7.53153
1045.078	-0.48161
1045.236	2.73308
1045.394	-2.80636
1045.552	9.888
