Data from deut_6ms_666_SR4014911__0__14-52-12-010.txt Node

Date: Thu Jul 10 14:52:12 EDT 2025
User: cryst
Spectrometer: SR401491
Trigger mode: 0
Integration Time (sec): 6.000000E-3
Scans to average: 666
Electric dark correction enabled: true
Nonlinearity correction enabled: true
Boxcar width: 0
XAxis mode: Wavelengths
Number of Pixels in Spectrum: 3648
>>>>>Begin Spectral Data<<<<<
344.912	-18.09872
345.129	-5.45838
345.347	-17.35962
345.565	-2.57543
345.783	5.10273
346.001	6.19243
346.219	-5.14294
346.437	6.08134
346.654	1.61115
346.872	8.17403
347.09	0.97716
347.308	11.01792
347.526	3.13071
347.743	5.08803
347.961	1.24024
348.179	6.73644
348.397	-2.89084
348.614	17.25513
348.832	9.74384
349.05	19.16895
349.268	8.92219
349.485	23.6721
349.703	8.34392
349.921	26.03276
350.138	9.75201
350.356	25.19039
350.574	10.13261
350.791	25.91195
351.009	13.71779
351.227	19.22774
351.444	13.33398
351.662	24.50962
351.879	11.39033
352.097	21.64104
352.314	14.09833
352.532	24.69246
352.75	14.30575
352.967	23.09414
353.185	14.87736
353.402	21.80921
353.62	10.72881
353.837	28.4634
354.055	11.77091
354.272	26.11438
354.49	15.67433
354.707	26.09969
354.925	13.42217
355.142	23.57904
355.359	16.2851
355.577	27.7468
355.794	14.46417
356.012	23.90719
356.229	14.14079
356.446	21.7488
356.664	14.29105
356.881	29.48848
357.099	12.52224
357.316	19.65555
357.533	16.13813
357.751	24.70879
357.968	17.48702
358.185	23.1072
358.402	15.00311
358.62	26.88816
358.837	16.19855
359.054	18.63172
359.272	15.08803
359.489	22.32025
359.706	14.35148
359.923	22.97496
360.141	15.52081
360.358	29.05593
360.575	14.88389
360.792	24.67124
361.009	10.40212
361.226	26.91265
361.444	16.84034
361.661	23.37986
361.878	14.57685
362.095	22.83781
362.312	17.08693
362.529	29.89654
362.746	13.5022
362.963	19.40409
363.181	15.26931
363.398	26.61065
363.615	15.98462
363.832	19.97886
364.049	12.05021
364.266	30.23441
364.483	13.83538
364.7	24.43452
364.917	9.76834
365.134	27.29789
365.351	17.16858
365.568	22.66149
365.785	11.24333
366.002	19.59677
366.219	11.64187
366.436	24.78878
366.652	16.55456
366.869	23.32924
367.086	19.72087
367.303	19.4694
367.52	11.93587
367.737	24.69083
367.954	16.89097
368.171	25.87441
368.387	18.87666
368.604	24.49655
368.821	18.18756
369.038	21.46797
369.255	12.71987
369.471	21.41735
369.688	17.26003
369.905	26.67594
370.122	19.79761
370.339	25.72259
370.555	12.27397
370.772	19.21467
370.989	19.22447
371.205	21.3896
371.422	11.59614
371.639	19.74373
371.855	13.13799
372.072	23.11537
372.289	14.87409
372.505	27.11506
372.722	11.24823
372.939	21.04018
373.155	14.00197
373.372	25.14631
373.589	17.11143
373.805	25.14631
374.022	14.34004
374.238	20.63852
374.455	14.56379
374.671	24.17167
374.888	14.87899
375.104	17.48212
375.321	11.94404
375.537	21.38796
375.754	13.71616
375.97	23.90719
376.187	22.90475
376.403	20.74302
376.62	13.93011
376.836	20.72506
377.053	12.70517
377.269	22.35127
377.486	13.20495
377.702	18.68561
377.918	13.74229
378.135	24.2631
378.351	15.88826
378.568	25.94787
378.784	15.68576
379	23.33251
379.217	14.67811
379.433	22.77087
379.649	15.53878
379.865	24.65002
380.082	20.6875
380.298	19.69801
380.514	23.3619
380.731	19.03995
380.947	10.1032
381.163	23.96923
381.379	19.08567
381.596	23.57087
381.812	18.11245
382.028	25.85645
382.244	15.59267
382.46	21.75533
382.676	14.92309
382.893	22.83455
383.109	16.30143
383.325	23.45659
383.541	15.82784
383.757	16.44188
383.973	18.14837
384.189	23.40108
384.405	17.48538
384.622	22.637
384.838	17.95895
385.054	23.36026
385.27	21.35857
385.486	22.41985
385.702	15.18929
385.918	29.16692
386.134	14.64218
386.35	29.89817
386.566	19.19998
386.782	30.63593
386.998	18.93545
387.214	30.70612
387.43	18.99913
387.646	26.76736
387.861	20.37074
388.077	29.72026
388.293	19.956
388.509	30.41396
388.725	18.56804
388.941	25.22304
389.157	15.64493
389.373	22.81169
389.588	13.65736
389.804	24.45901
390.02	19.57881
390.236	22.76434
390.452	15.58451
390.668	24.31371
390.883	22.24352
391.099	23.77332
391.315	22.41985
391.531	25.2263
391.746	18.87993
391.962	27.67008
392.178	14.97535
392.393	30.5886
392.609	22.66475
392.825	30.69959
393.041	15.0962
393.256	27.91167
393.472	19.49063
393.687	29.2567
393.903	22.88679
394.119	26.00827
394.334	17.14409
394.55	29.52765
394.766	12.61697
394.981	31.58422
395.197	20.77567
395.412	34.047
395.628	25.6377
395.843	33.66348
396.059	30.74203
396.274	34.58065
396.49	28.79966
396.705	32.39375
396.921	18.13041
397.136	28.33118
397.352	21.38796
397.567	30.49557
397.783	18.65948
397.998	28.50258
398.214	19.79761
398.429	26.43597
398.644	18.57784
398.86	32.57817
399.075	22.4672
399.29	29.00859
399.506	19.93803
399.721	26.96488
399.936	12.85543
400.152	32.06896
400.367	18.3378
400.582	30.76161
400.798	23.13986
401.013	19.6131
401.228	20.16337
401.444	28.23487
401.659	17.98344
401.874	30.88403
402.089	19.96089
402.304	31.73764
402.52	16.8877
402.735	28.39484
402.95	16.13649
403.165	31.78171
403.38	17.68624
403.596	26.25314
403.811	19.42042
404.026	30.56738
404.241	18.55498
404.456	26.16009
404.671	26.13887
404.886	32.4525
405.101	21.70798
405.316	29.69251
405.532	28.29853
405.747	28.88617
405.962	23.43536
406.177	31.64624
406.392	21.59696
406.607	31.91717
406.822	23.27373
407.037	35.8976
407.252	26.51923
407.467	41.71948
407.682	29.49501
407.896	45.0655
408.111	35.39335
408.326	47.71952
408.541	39.99165
408.756	57.7704
408.971	50.86256
409.186	55.90337
409.401	47.42591
409.616	35.51574
409.83	24.44595
410.045	30.59023
410.26	12.95016
410.475	26.78205
410.69	20.2695
410.905	26.6939
411.119	17.23227
411.334	31.59891
411.549	18.52722
411.764	30.78773
411.978	20.98957
412.193	31.60217
412.408	18.457
412.623	24.62553
412.837	22.91782
413.052	25.76176
413.267	17.15388
413.481	25.13815
413.696	22.74965
413.911	22.67944
414.125	19.02852
414.34	23.79944
414.554	18.28717
414.769	30.26053
414.984	15.49142
415.198	23.39781
415.413	14.44457
415.627	28.97758
415.842	14.93452
416.056	27.2881
416.271	13.15595
416.485	27.64233
416.7	22.36923
416.914	30.11526
417.129	17.4021
417.343	31.6544
417.558	18.00141
417.772	30.60329
417.987	16.76849
418.201	24.44758
418.415	14.68791
418.63	25.52832
418.844	18.72643
419.059	29.59947
419.273	14.68628
419.487	31.25126
419.702	21.67696
419.916	31.67725
420.13	20.47524
420.345	26.0703
420.559	18.05693
420.773	30.7763
420.988	17.229
421.202	36.48996
421.416	20.34624
421.63	25.29324
421.845	19.53472
422.059	33.9246
422.273	16.77175
422.487	32.46882
422.701	28.01451
422.916	34.80749
423.13	21.36184
423.344	32.16852
423.558	22.71863
423.772	27.50684
423.986	17.11959
424.201	30.60819
424.415	25.87277
424.629	33.93765
424.843	22.78067
425.057	33.03841
425.271	14.22899
425.485	25.42547
425.699	14.79733
425.913	28.8372
426.127	18.65785
426.341	30.59513
426.555	19.99192
426.769	30.5478
426.983	20.40992
427.197	27.85617
427.411	19.15262
427.625	30.72897
427.839	13.36174
428.053	28.58419
428.267	18.75256
428.481	33.00414
428.695	19.04485
428.908	26.05235
429.122	19.13793
429.336	27.88392
429.55	21.95453
429.764	34.12696
429.978	29.42156
430.191	41.36054
430.405	41.14355
430.619	52.66307
430.833	56.79532
431.047	82.01864
431.26	88.50973
431.474	114.07459
431.688	117.90465
431.901	131.70895
432.115	143.86147
432.329	162.14767
432.543	169.24345
432.756	199.98346
432.97	202.61768
433.184	156.96721
433.397	71.88065
433.611	37.4152
433.824	25.26875
434.038	27.84148
434.252	22.41495
434.465	28.7311
434.679	19.6131
434.892	29.89981
435.106	11.08652
435.319	28.95962
435.533	19.58044
435.747	32.88826
435.96	19.52655
436.174	30.13811
436.387	25.22794
436.601	28.42912
436.814	25.20671
437.027	27.72068
437.241	19.72087
437.454	23.71454
437.668	23.85985
437.881	32.61408
438.095	20.12418
438.308	31.02113
438.521	25.79441
438.735	27.89861
438.948	23.06475
439.161	31.7507
439.375	20.6826
439.588	31.00154
439.801	26.88163
440.015	26.91428
440.228	22.90639
440.441	34.84666
440.654	26.66778
440.868	39.19867
441.081	23.17251
441.294	34.25099
441.507	26.41149
441.721	25.44833
441.934	20.79853
442.147	30.60166
442.36	21.61818
442.573	31.41448
442.786	20.01804
443	30.94442
443.213	24.15208
443.426	33.53781
443.639	26.5682
443.852	28.84373
444.065	25.12019
444.278	33.46274
444.491	25.13488
444.704	34.34402
444.917	23.58393
445.13	34.71121
445.343	20.61729
445.556	44.75066
445.769	34.03721
445.982	32.42965
446.195	27.38768
446.408	34.22325
446.621	26.26946
446.834	32.44434
447.047	27.25382
447.26	34.30322
447.473	21.34551
447.686	35.34276
447.899	27.03018
448.111	36.1995
448.324	25.92665
448.537	36.20929
448.75	24.18147
448.963	31.18924
449.176	25.15774
449.388	37.85251
449.601	22.07535
449.814	31.04235
450.027	27.4089
450.239	36.11464
450.452	24.64349
450.665	33.12165
450.878	21.08753
451.09	35.10124
451.303	24.01494
451.516	31.01623
451.728	27.52643
451.941	24.62063
452.154	26.70206
452.366	32.05754
452.579	19.91028
452.792	34.89725
453.004	26.88163
453.217	33.26853
453.429	24.48023
453.642	28.28384
453.854	27.97696
454.067	31.66746
454.28	24.92102
454.492	32.56185
454.705	25.93807
454.917	33.78588
455.13	29.62722
455.342	37.82967
455.555	17.96385
455.767	37.82967
455.979	21.80595
456.192	36.19623
456.404	16.60028
456.617	32.0151
456.829	21.79125
457.041	37.44131
457.254	24.69573
457.466	31.79313
457.679	25.94787
457.891	37.74481
458.103	22.71863
458.315	36.22234
458.528	25.15284
458.74	30.91667
458.952	26.06377
459.165	33.8838
459.377	23.24598
459.589	28.74905
459.801	24.20596
460.014	34.23304
460.226	25.78462
460.438	32.41496
460.65	21.12182
460.862	31.6136
461.075	23.41414
461.287	31.14517
461.499	18.90606
461.711	24.8851
461.923	18.52885
462.135	29.33015
462.347	23.1872
462.559	31.77518
462.771	24.48513
462.983	33.55087
463.196	23.83209
463.408	34.17103
463.62	22.63046
463.832	35.02617
464.044	23.98556
464.256	38.46604
464.468	23.66556
464.68	28.29364
464.891	26.17152
465.103	33.12491
465.315	23.53332
465.527	25.87441
465.739	21.68349
465.951	28.4634
466.163	22.85414
466.375	28.64622
466.587	19.76659
466.799	30.63593
467.01	15.55021
467.222	27.95411
467.434	23.24598
467.646	28.06674
467.858	23.37496
468.069	31.73438
468.281	21.39939
468.493	27.80393
468.705	12.90443
468.916	29.83941
469.128	13.42707
469.34	24.95367
469.551	17.96222
469.763	24.82307
469.975	17.54581
470.186	30.67348
470.398	17.5948
470.61	20.71036
470.821	12.29031
471.033	28.58256
471.245	24.90959
471.456	24.0329
471.668	22.33005
471.879	24.90469
472.091	23.72271
472.302	31.25779
472.514	22.16025
472.725	28.54502
472.937	21.45001
473.148	24.81327
473.36	18.06673
473.571	30.96074
473.783	17.66011
473.994	29.3073
474.206	18.08306
474.417	27.45134
474.629	21.69492
474.84	33.58351
475.051	22.49005
475.263	30.31602
475.474	19.27182
475.685	34.29179
475.897	22.37576
476.108	26.85714
476.319	16.80278
476.531	25.89073
476.742	24.00841
476.953	29.99774
477.165	23.26067
477.376	30.77794
477.587	22.43781
477.798	27.37788
478.01	18.21206
478.221	28.42912
478.432	22.40189
478.643	27.87576
478.854	20.28583
479.065	38.61453
479.277	26.92734
479.488	35.31828
479.699	22.09004
479.91	33.40562
480.121	23.81413
480.332	32.86052
480.543	24.72022
480.754	32.1473
480.965	23.33741
481.176	38.42525
481.387	30.10547
481.598	37.43804
481.809	34.22978
482.02	51.86068
482.231	86.69531
482.442	173.72022
482.653	300.63064
482.864	460.93686
483.075	679.32356
483.286	957.9731
483.497	1271.54992
483.708	1523.19527
483.919	1729.16016
484.13	1935.56618
484.341	2181.63096
484.551	2563.65195
484.762	2856.62716
484.973	2970.4844
485.184	2075.4281
485.395	705.93067
485.605	223.66315
485.816	119.11181
486.027	59.37644
486.238	50.17591
486.449	47.56619
486.659	45.17317
486.87	38.03853
487.081	33.56556
487.291	31.63482
487.502	39.40752
487.713	23.27863
487.923	38.62595
488.134	23.10067
488.345	45.38361
488.555	30.01243
488.766	33.27179
488.976	33.13307
489.187	42.19098
489.398	29.12285
489.608	37.57837
489.819	24.6092
490.029	32.85889
490.24	34.90214
490.45	42.43081
490.661	28.91228
490.871	31.18761
491.082	20.86874
491.292	28.97268
491.503	27.05793
491.713	37.93573
491.924	26.85714
492.134	35.88291
492.344	28.8323
492.555	41.78637
492.765	29.89165
492.975	36.49975
493.186	27.14118
493.396	35.33297
493.607	20.25644
493.817	33.45132
494.027	23.32271
494.237	31.93839
494.448	27.29953
494.658	37.77419
494.868	23.56108
495.078	35.82417
495.289	31.01786
495.499	37.82151
495.709	24.57982
495.919	36.48017
496.129	24.21412
496.34	24.28922
496.55	22.72189
496.76	34.70305
496.97	26.31517
497.18	32.539
497.39	23.02557
497.6	33.69775
497.81	30.26869
498.021	34.56433
498.231	30.75998
498.441	38.35672
498.651	23.32598
498.861	33.21794
499.071	24.70879
499.281	35.53043
499.491	26.2613
499.701	34.64756
499.911	26.32334
500.121	31.38673
500.331	25.91522
500.54	43.0426
500.75	30.01733
500.96	35.63487
501.17	27.15751
501.38	41.06686
501.59	29.78392
501.8	30.99175
502.01	25.07938
502.219	38.32898
502.429	29.94877
502.639	42.01478
502.849	27.54765
503.059	35.3297
503.268	27.404
503.478	34.02741
503.688	23.94148
503.898	33.71244
504.107	26.53392
504.317	45.41134
504.527	30.57391
504.736	38.42035
504.946	24.35289
505.156	33.12491
505.365	28.62826
505.575	32.60102
505.785	24.11943
505.994	33.29791
506.204	21.75697
506.413	35.61039
506.623	21.33735
506.832	32.4068
507.042	25.63933
507.251	36.22234
507.461	29.21099
507.67	33.46274
507.88	22.04596
508.089	32.14567
508.299	28.04226
508.508	33.82505
508.718	22.877
508.927	32.58307
509.137	28.8372
509.346	34.61329
509.555	24.60104
509.765	34.44357
509.974	40.27718
510.184	35.66098
510.393	24.93898
510.602	32.96497
510.812	29.43135
511.021	34.24773
511.23	30.41722
511.439	30.75508
511.649	25.32099
511.858	31.16476
512.067	26.72328
512.276	33.35013
512.486	38.91965
512.695	34.51864
512.904	21.91697
513.113	34.32933
513.322	28.89923
513.531	35.33297
513.741	30.68653
513.95	27.81373
514.159	28.14183
514.368	27.35176
514.577	18.3035
514.786	35.20894
514.995	27.12323
515.204	33.57045
515.413	23.94964
515.622	31.02113
515.831	24.7447
516.04	32.05917
516.249	19.76005
516.458	29.10816
516.667	24.96836
516.876	33.37135
517.085	24.49982
517.294	33.42357
517.503	22.58475
517.712	29.44931
517.921	25.25569
518.13	33.98825
518.339	24.83286
518.547	40.32287
518.756	28.20876
518.965	31.37204
519.174	26.62044
519.383	30.90198
519.591	23.01741
519.8	28.30506
520.009	23.91209
520.218	29.06409
520.426	21.55124
520.635	28.30996
520.844	21.6639
521.053	32.31051
521.261	22.75618
521.47	31.08152
521.679	25.43526
521.887	33.46274
522.096	18.61866
522.304	30.15117
522.513	23.29169
522.722	25.16263
522.93	26.43761
523.139	32.64182
523.347	22.05575
523.556	29.59458
523.764	18.96647
523.973	27.48399
524.182	20.64668
524.39	34.90051
524.598	19.07751
524.807	30.84812
525.015	25.29487
525.224	33.19835
525.432	18.0259
525.641	25.06468
525.849	24.24351
526.057	29.44278
526.266	25.36996
526.474	31.48793
526.683	20.37563
526.891	32.17505
527.099	25.66545
527.308	32.52431
527.516	19.66372
527.724	32.51615
527.932	22.0133
528.141	34.71284
528.349	28.1402
528.557	35.31012
528.765	23.70801
528.974	28.86332
529.182	20.02947
529.39	29.95693
529.598	19.7225
529.806	29.58968
530.015	24.00025
530.223	31.81925
530.431	20.94712
530.639	27.76476
530.847	18.3231
531.055	30.80242
531.263	21.28673
531.471	24.65165
531.679	16.83218
531.887	31.50261
532.095	24.8296
532.303	34.80586
532.511	27.65702
532.719	27.42032
532.927	21.44021
533.135	33.58677
533.343	26.87184
533.551	31.48466
533.759	22.00351
533.967	35.11429
534.175	23.55128
534.383	38.27513
534.591	27.78761
534.798	36.85876
535.006	25.03203
535.214	33.23263
535.422	24.619
535.63	34.01273
535.837	18.91259
536.045	30.46129
536.253	21.36184
536.461	31.88616
536.668	23.5774
536.876	32.16036
537.084	25.3569
537.292	32.20442
537.499	30.02712
537.707	34.33749
537.915	28.35893
538.122	35.60386
538.33	27.54275
538.538	31.22189
538.745	29.07062
538.953	34.21672
539.16	24.22065
539.368	35.92208
539.575	24.30881
539.783	31.03255
539.99	31.54668
540.198	28.63153
540.406	21.35694
540.613	31.89759
540.82	26.39353
541.028	37.17859
541.235	26.34456
541.443	36.90445
541.65	28.8878
541.858	36.15544
542.065	24.66797
542.272	30.30133
542.48	28.02104
542.687	37.38093
542.895	28.33934
543.102	36.4149
543.309	23.91046
543.516	31.16313
543.724	25.22304
543.931	33.04168
544.138	24.39534
544.346	32.28766
544.553	23.05006
544.76	27.47093
544.967	22.7823
545.174	33.28485
545.382	23.26394
545.589	34.10248
545.796	30.54616
546.003	28.88127
546.21	23.96597
546.417	41.60854
546.624	25.46792
546.832	35.65119
547.039	32.09834
547.246	35.03433
547.453	32.17015
547.66	33.79893
547.867	26.7543
548.074	35.66098
548.281	28.71151
548.488	30.63593
548.695	24.1782
548.902	36.38553
549.109	25.06632
549.316	26.37884
549.523	25.05978
549.73	33.3436
549.936	23.6525
550.143	31.4259
550.35	20.02947
550.557	31.81272
550.764	21.35694
550.971	35.84049
551.178	20.85405
551.384	38.45625
551.591	21.72104
551.798	34.19061
552.005	21.49083
552.211	30.69143
552.418	23.69658
552.625	28.89759
552.832	28.20223
553.038	38.26044
553.245	31.17945
553.452	35.38519
553.658	26.55841
553.865	33.82994
554.072	23.39618
554.278	37.5898
554.485	30.90198
554.691	37.3434
554.898	23.13333
555.105	32.82135
555.311	25.56097
555.518	37.04478
555.724	21.69002
555.931	29.02328
556.137	19.85149
556.344	33.42684
556.55	23.6525
556.757	34.77975
556.963	22.72843
557.17	35.61365
557.376	26.10132
557.582	34.1286
557.789	24.82633
557.995	31.76865
558.202	19.79271
558.408	34.09106
558.614	18.07652
558.821	34.6345
559.027	28.45687
559.233	36.3382
559.439	24.67777
559.646	37.87862
559.852	24.50472
560.058	35.81438
560.264	27.99492
560.471	33.42194
560.677	27.78434
560.883	38.80543
561.089	27.48725
561.295	36.19297
561.502	26.90285
561.708	31.45691
561.914	28.1402
562.12	33.40725
562.326	28.58419
562.532	38.17723
562.738	27.04977
562.944	30.84975
563.15	30.55759
563.356	30.43354
563.562	33.33218
563.768	39.82033
563.974	22.72516
564.18	34.66878
564.386	25.38466
564.592	33.13307
564.798	22.74475
565.004	33.74345
565.21	21.26061
565.416	38.44809
565.622	26.87836
565.828	36.11138
566.034	32.19626
566.239	35.62997
566.445	34.17429
566.651	42.62658
566.857	34.85318
567.063	40.36202
567.268	39.83012
567.474	43.48472
567.68	36.53565
567.886	44.28899
568.091	43.19433
568.297	50.49233
568.503	39.86438
568.708	52.90607
568.914	49.82198
569.12	59.19383
569.325	46.20903
569.531	54.8418
569.737	36.08527
569.942	51.29149
570.148	43.80447
570.353	64.00975
570.559	46.6984
570.765	52.50977
570.97	50.19712
571.176	61.15845
571.381	46.16988
571.587	49.36203
571.792	40.2935
571.998	49.58548
572.203	40.53008
572.408	64.22656
572.614	60.33023
572.819	64.6129
573.025	53.88618
573.23	59.771
573.435	55.58865
573.641	65.35949
573.846	46.89088
574.051	63.70491
574.257	52.8816
574.462	63.51255
574.667	50.50863
574.873	60.05306
575.078	58.62153
575.283	58.07368
575.488	55.81369
575.694	74.25988
575.899	52.48531
576.104	62.42682
576.309	58.08346
576.514	68.58033
576.719	70.82785
576.925	87.93317
577.13	70.5785
577.335	74.50594
577.54	60.71499
577.745	65.20137
577.95	58.10466
578.155	61.93122
578.36	46.05243
578.565	60.59272
578.77	68.72702
578.975	80.1484
579.18	62.76917
579.385	72.38095
579.59	76.24622
579.795	65.82732
580	54.43085
580.205	60.21121
580.41	72.99207
580.615	111.02024
580.82	111.41894
581.024	96.20418
581.229	84.00116
581.434	91.37769
581.639	72.69059
581.844	64.07985
582.049	47.08825
582.253	61.29703
582.458	47.93483
582.663	53.35128
582.868	45.27757
583.072	54.52217
583.277	53.33497
583.482	72.57977
583.686	66.43695
583.891	70.44648
584.096	64.96012
584.3	80.29503
584.505	60.63837
584.71	68.21361
584.914	68.27554
585.119	67.45895
585.323	54.57925
585.528	54.93638
585.733	50.21995
585.937	62.38443
586.142	47.26116
586.346	68.58033
586.551	59.14165
586.755	67.96586
586.959	73.32451
587.164	75.22455
587.368	58.0802
587.573	74.23055
587.777	86.88751
587.982	213.65797
588.186	414.13496
588.39	223.70205
588.595	140.23335
588.799	263.18102
589.003	138.01918
589.208	71.6036
589.412	53.77366
589.616	56.80837
589.82	52.55544
590.025	48.69329
590.229	43.57934
590.433	47.32804
590.637	42.94798
590.842	60.86173
591.046	55.04564
591.25	53.78996
591.454	42.99366
591.658	50.4858
591.862	61.30192
592.067	98.33218
592.271	78.76519
592.475	70.453
592.679	65.39209
592.883	67.87947
593.087	61.35735
593.291	61.2041
593.495	48.24148
593.699	53.0349
593.903	54.16015
594.107	83.88387
594.311	73.24955
594.515	75.3435
594.719	54.22864
594.923	61.4731
595.127	62.34041
595.33	63.58264
595.534	43.47819
595.738	67.55186
595.942	58.41609
596.146	54.06883
596.35	52.15261
596.553	59.35687
596.757	54.59067
596.961	76.8768
597.165	51.11698
597.369	49.73391
597.572	45.28736
597.776	56.20504
597.98	60.27642
598.183	81.85737
598.387	59.76937
598.591	59.25741
598.794	48.71613
598.998	57.00893
599.202	57.26167
599.405	72.51785
599.609	57.6579
599.812	72.78511
600.016	65.48663
600.22	76.91427
600.423	73.01488
600.627	69.73264
600.83	49.93616
601.034	74.43913
601.237	72.80792
601.441	57.86497
601.644	54.6135
601.847	67.06939
602.051	59.76937
602.254	65.20137
602.458	63.88749
602.661	79.76391
602.864	60.83564
603.068	63.14412
603.271	48.99015
603.475	53.81769
603.678	52.89302
603.881	57.48995
604.084	41.69664
604.288	58.01335
604.491	60.83727
604.694	68.48254
604.897	46.24492
605.101	59.13676
605.304	52.23905
605.507	57.1247
605.71	43.96924
605.913	62.40725
606.116	55.97512
606.32	61.2579
606.523	49.81546
606.726	54.76026
606.929	54.26941
607.132	58.0052
607.335	56.36484
607.538	52.99413
607.741	48.02943
607.944	49.09454
608.147	41.87937
608.35	53.37085
608.553	42.86967
608.756	51.85416
608.959	49.44848
609.162	65.21767
609.365	51.68618
609.568	60.81282
609.771	38.59005
609.973	59.87045
610.176	49.56754
610.379	52.95173
610.582	46.3591
610.785	57.07415
610.988	47.16981
611.19	47.73093
611.393	39.39773
611.596	47.18939
611.799	36.66783
612.001	55.42559
612.204	41.6069
612.407	46.47818
612.609	43.65928
612.812	58.62805
613.015	44.8567
613.217	56.96654
613.42	39.3341
613.623	50.48091
613.825	48.64762
614.028	60.13132
614.23	39.86765
614.433	46.5679
614.636	43.49288
614.838	57.08557
615.041	50.6913
615.243	47.77171
615.446	33.29954
615.648	38.00589
615.85	35.12245
616.053	38.58679
616.255	41.49759
616.458	44.79634
616.66	31.19414
616.863	37.64691
617.065	29.72842
617.267	50.08784
617.47	31.06683
617.672	41.08644
617.874	29.6664
618.077	36.58951
618.279	32.36763
618.481	44.07039
618.683	30.97053
618.886	34.54475
619.088	43.78326
619.29	51.3127
619.492	34.46478
619.694	40.9086
619.897	33.48069
620.099	34.98211
620.301	17.86097
620.503	30.94115
620.705	27.53296
620.907	39.40426
621.109	32.43618
621.311	37.70239
621.513	34.51374
621.715	41.38991
621.917	38.21965
622.119	43.54182
622.321	36.24029
622.523	38.89028
622.725	31.93676
622.927	31.6087
623.129	28.90902
623.331	38.80217
623.533	29.05593
623.735	40.58718
623.937	37.56532
624.139	29.39054
624.341	27.61294
624.542	33.18366
624.744	21.57573
624.946	39.89701
625.148	31.99715
625.35	35.53206
625.551	21.47287
625.753	30.02386
625.955	25.28018
626.156	40.25923
626.358	25.69647
626.56	30.39274
626.762	28.62826
626.963	35.40151
627.165	26.96978
627.366	39.12035
627.568	28.2512
627.77	33.39583
627.971	32.78544
628.173	34.53332
628.374	25.32752
628.576	33.61289
628.777	31.79803
628.979	31.41121
629.18	17.8871
629.382	31.84536
629.583	26.53719
629.785	33.56556
629.986	20.0556
630.188	27.80393
630.389	21.39613
630.591	31.00318
630.792	21.07447
630.993	24.94061
631.195	22.43291
631.396	24.67614
631.597	20.17806
631.799	28.40464
632	22.71863
632.201	28.72947
632.402	24.94877
632.604	34.02578
632.805	20.51442
633.006	30.10873
633.207	25.41894
633.409	35.50269
633.61	25.30466
633.811	30.94442
634.012	23.97413
634.213	32.90132
634.414	25.05652
634.615	32.48351
634.816	26.3217
635.017	33.38277
635.219	20.56504
635.42	31.86005
635.621	24.26636
635.822	36.97135
636.023	25.24753
636.224	30.58207
636.425	23.4321
636.626	30.05487
636.826	17.48375
637.027	30.4417
637.228	20.77567
637.429	26.99753
637.63	23.16271
637.831	27.79577
638.032	21.45327
638.233	27.66355
638.433	16.59539
638.634	30.14301
638.835	17.49682
639.036	32.45903
639.237	12.6382
639.437	24.01821
639.638	17.42333
639.839	31.65277
640.039	12.36871
640.24	26.60738
640.441	15.37873
640.641	20.37563
640.842	19.0024
641.043	26.42128
641.243	14.32371
641.444	25.79768
641.645	21.07447
641.845	25.65565
642.046	17.03467
642.246	28.15652
642.447	15.12396
642.647	26.26783
642.848	23.45332
643.048	31.05704
643.249	17.0902
643.449	24.22391
643.65	15.18112
643.85	25.86788
644.05	15.8458
644.251	17.33515
644.451	19.7078
644.651	23.66556
644.852	15.82784
645.052	22.98639
645.252	12.07798
645.453	18.457
645.653	18.63009
645.853	23.66883
646.054	16.5268
646.254	25.81237
646.454	12.98446
646.654	22.43128
646.854	14.49846
647.055	26.38537
647.255	15.58614
647.455	27.09874
647.655	16.80605
647.855	30.95258
648.055	16.2802
648.255	22.23862
648.455	20.29399
648.655	25.01407
648.856	19.13629
649.056	23.97086
649.256	17.90996
649.456	21.26714
649.656	19.79761
649.856	30.44986
650.055	16.47781
650.255	30.48577
650.455	22.22556
650.655	33.29138
650.855	30.41396
651.055	45.92356
651.255	35.59244
651.455	44.08018
651.655	31.34919
651.854	41.27244
652.054	21.93493
652.254	40.09934
652.454	35.65772
652.654	46.02796
652.853	53.93836
653.053	79.00632
653.253	125.53715
653.452	302.55737
653.652	990.2485
653.852	2523.04762
654.051	4911.95444
654.251	8340.65083
654.451	12561.58899
654.65	17348.5592
654.85	24299.80507
655.049	37127.37193
655.249	49068.30801
655.449	38082.4618
655.648	13739.05011
655.848	4072.59328
656.047	2232.30935
656.247	1724.18792
656.446	1363.6786
656.645	1004.70893
656.845	702.09789
657.044	480.52972
657.244	308.53881
657.443	207.74916
657.643	143.04876
657.842	111.75254
658.041	78.98025
658.241	76.26577
658.44	57.46712
658.639	58.62805
658.839	48.7096
659.038	51.5606
659.237	39.19541
659.436	44.10301
659.636	34.2869
659.835	44.00513
660.034	33.73855
660.233	39.81706
660.432	30.28338
660.631	43.05892
660.831	30.77304
661.03	35.28891
661.229	28.79639
661.428	38.19028
661.627	26.52902
661.826	37.80682
662.025	21.59859
662.224	33.99804
662.423	21.16917
662.622	28.98247
662.821	17.63072
663.02	31.97593
663.219	19.84496
663.418	34.56923
663.617	20.6973
663.816	28.54338
664.015	18.48639
664.214	27.42685
664.412	22.60761
664.611	32.06733
664.81	24.05249
665.009	30.75182
665.208	17.46089
665.406	24.33167
665.605	15.50775
665.804	25.70463
666.003	15.32321
666.201	22.73822
666.4	12.24294
666.599	24.53737
666.798	16.46311
666.996	24.7594
667.195	16.53333
667.394	19.98212
667.592	19.22284
667.791	21.96759
667.989	11.76764
668.188	24.72675
668.386	17.15552
668.585	23.45985
668.783	17.58663
668.982	24.41656
669.18	15.21869
669.379	26.15193
669.577	13.51037
669.776	18.32637
669.974	15.66616
670.173	21.71615
670.371	15.68249
670.57	18.63172
670.768	11.80684
670.966	22.99128
671.165	21.99045
671.363	20.23031
671.561	17.81035
671.76	26.84572
671.958	20.58953
672.156	23.3472
672.354	9.78631
672.553	19.23917
672.751	11.62391
672.949	18.69867
673.147	17.49028
673.345	20.19113
673.543	16.77665
673.742	20.4785
673.94	11.50467
674.138	20.99936
674.336	8.97936
674.534	19.03179
674.732	16.3243
674.93	24.15535
675.128	14.43967
675.326	22.46066
675.524	8.53014
675.722	22.16515
675.92	13.57733
676.118	19.13629
676.316	12.5794
676.514	19.14609
676.712	8.10868
676.91	17.99161
677.108	13.65899
677.305	24.37085
677.503	12.35727
677.701	18.59743
677.899	9.04961
678.097	24.7447
678.295	9.93496
678.492	19.21304
678.69	15.98462
678.888	20.42462
679.085	19.77475
679.283	19.827
679.481	9.69974
679.679	17.12939
679.876	11.03426
680.074	20.8018
680.271	9.0447
680.469	16.97425
680.667	13.5071
680.864	18.12551
681.062	15.71026
681.259	21.11039
681.457	10.82681
681.654	26.23355
681.852	6.98966
682.049	15.67923
682.247	6.29045
682.444	16.32266
682.642	11.03916
682.839	13.42217
683.037	10.97709
683.234	21.09733
683.431	11.20576
683.629	18.12225
683.826	13.29805
684.023	19.31428
684.221	17.86424
684.418	23.4321
684.615	16.45004
684.813	27.09548
685.01	17.93282
685.207	19.74373
685.404	8.96956
685.601	21.59859
685.799	15.80171
685.996	22.98312
686.193	13.43851
686.39	11.88687
686.587	9.80755
686.784	21.11856
686.981	13.99544
687.179	24.43778
687.376	15.00964
687.573	19.26856
687.77	8.08418
687.967	17.85117
688.164	5.4981
688.361	12.17434
688.558	5.52587
688.755	14.7761
688.952	12.6088
689.148	23.07945
689.345	9.29136
689.542	17.26819
689.739	10.34495
689.936	18.38352
690.133	10.44623
690.33	16.04994
690.526	14.53929
690.723	27.47582
690.92	10.90848
691.117	18.22022
691.314	9.65563
691.51	15.21542
691.707	8.4893
691.904	16.08097
692.1	10.28288
692.297	17.77932
692.494	7.22327
692.69	25.46139
692.887	18.35249
693.084	15.55184
693.28	5.03248
693.477	16.34063
693.673	7.73622
693.87	13.14779
694.066	3.42971
694.263	12.73947
694.459	6.3852
694.656	15.70046
694.852	13.31601
695.049	13.5071
695.245	9.61643
695.442	14.57522
695.638	8.47787
695.834	13.15922
696.031	9.64257
696.227	19.91191
696.423	14.4805
696.62	22.82965
696.816	14.33514
697.012	17.5507
697.209	9.14108
697.405	17.16368
697.601	13.68839
697.797	18.0455
697.994	7.92409
698.19	12.74927
698.386	12.63984
698.582	15.8997
698.778	8.73924
698.974	12.15801
699.17	7.58103
699.367	15.19092
699.563	9.81571
699.759	16.94812
699.955	8.76701
700.151	13.98237
700.347	7.25758
700.543	15.24482
700.739	9.82388
700.935	13.80435
701.131	9.2636
701.327	18.11898
701.523	8.85848
701.718	14.05097
701.914	8.61999
702.11	23.64434
702.306	9.36161
702.502	13.38787
702.698	3.10456
702.894	15.84254
703.089	6.83936
703.285	18.89789
703.481	8.09235
703.677	17.76136
703.872	9.37631
704.068	11.40503
704.264	3.0245
704.459	10.93298
704.655	2.94608
704.851	15.26278
705.046	3.08006
705.242	11.58144
705.438	-0.16504
705.633	12.75253
705.829	6.81486
706.024	14.41517
706.22	13.13472
706.415	21.61492
706.611	7.01253
706.806	17.9018
707.002	11.67617
707.197	19.12813
707.393	9.43348
707.588	10.31392
707.784	10.0689
707.979	15.81967
708.174	3.08823
708.37	14.05097
708.565	5.23997
708.76	14.4609
708.956	5.69905
709.151	12.70517
709.346	7.08604
709.542	16.82564
709.737	1.75821
709.932	18.14184
710.127	4.85767
710.322	11.2907
710.518	5.40824
710.713	14.99005
710.908	2.77942
711.103	16.62968
711.298	3.05555
711.493	9.96109
711.688	2.85948
711.883	12.37034
712.078	9.76671
712.273	20.36584
712.468	8.41579
712.663	14.52786
712.858	7.19223
713.053	16.23284
713.248	11.03916
713.443	18.021
713.638	0.16668
713.833	14.66831
714.028	6.86387
714.223	12.13514
714.418	10.90848
714.613	14.77284
714.807	14.66831
715.002	20.14214
715.197	8.94996
715.392	13.02366
715.587	2.19121
715.781	12.75253
715.976	5.49156
716.171	16.05321
716.365	0.61441
716.56	18.45537
716.755	3.33167
716.949	14.37434
717.144	5.3527
717.339	14.52786
717.533	5.74806
717.728	20.92099
717.922	5.01614
718.117	10.97219
718.312	6.18099
718.506	10.81211
718.701	14.28125
718.895	19.58207
719.089	8.1969
719.284	17.54091
719.478	2.67975
719.673	14.18652
719.867	7.58593
720.062	16.42228
720.256	5.33309
720.45	12.03714
720.645	4.44432
720.839	13.54303
721.033	9.41388
721.228	12.39484
721.422	4.08161
721.616	12.697
721.81	5.3576
722.005	14.54256
722.199	6.24307
722.393	11.03262
722.587	2.12748
722.781	15.91276
722.975	7.29515
723.169	13.43687
723.364	9.83368
723.558	15.56817
723.752	6.48976
723.946	17.0559
724.14	3.17482
724.334	14.12446
724.528	5.5226
724.722	16.80605
724.916	9.78795
725.11	15.16806
725.304	4.93445
725.498	18.36719
725.692	8.51054
725.885	14.4217
726.079	7.86201
726.273	15.44896
726.467	8.07111
726.661	14.98025
726.855	6.14342
727.048	16.6852
727.242	2.51963
727.436	17.46579
727.63	2.73367
727.823	13.23925
728.017	4.06037
728.211	19.57064
728.405	8.54158
728.598	14.42823
728.792	5.85588
728.986	16.92526
729.179	9.27993
729.373	15.43099
729.566	8.33738
729.76	18.22839
729.953	5.47196
730.147	21.50879
730.34	12.23804
730.534	25.24263
730.727	13.11675
730.921	21.07121
731.114	9.42858
731.308	17.15062
731.501	10.04603
731.695	13.83048
731.888	4.67468
732.081	14.57359
732.275	9.75854
732.468	14.54909
732.661	6.99946
732.855	14.29758
733.048	4.0326
733.241	11.4034
733.434	12.8048
733.628	20.26624
733.821	10.02316
734.014	22.39372
734.207	8.40926
734.4	11.96527
734.594	9.2832
734.787	14.83163
734.98	13.24251
735.173	22.6272
735.366	4.8789
735.559	16.39942
735.752	3.94437
735.945	14.39394
736.138	2.12912
736.331	17.87567
736.524	10.83498
736.717	13.87131
736.91	9.54946
737.103	16.05974
737.296	6.29862
737.489	16.73583
737.682	4.03586
737.875	9.87615
738.067	5.49973
738.26	15.06517
738.453	7.81137
738.646	18.93055
738.839	10.58833
739.031	17.82015
739.224	7.59737
739.417	19.10854
739.61	10.34659
739.802	17.02651
739.995	-0.11765
740.188	20.43605
740.38	5.3625
740.573	13.76352
740.765	4.15023
740.958	7.29352
741.151	6.03233
741.343	13.92848
741.536	6.15812
741.728	16.65581
741.921	6.27085
742.113	15.26441
742.306	1.61442
742.498	9.0153
742.691	4.29074
742.883	9.37141
743.076	1.56703
743.268	14.56379
743.46	7.92572
743.653	12.89463
743.845	1.55886
744.037	11.84931
744.23	0.87258
744.422	15.39343
744.614	-2.63753
744.807	16.49577
744.999	0.8252
745.191	16.45331
745.383	3.75158
745.575	10.97545
745.768	0.29577
745.96	17.45599
746.152	9.15578
746.344	10.94605
746.536	8.56445
746.728	15.38527
746.92	4.67958
747.112	15.19092
747.304	6.56817
747.496	14.35637
747.688	0.05556
747.88	8.78661
748.072	7.36539
748.264	14.33514
748.456	6.78872
748.648	12.41281
748.84	4.1486
749.032	15.53225
749.224	7.6186
749.416	12.51244
749.608	5.64023
749.799	13.39441
749.991	10.29595
750.183	19.19018
750.375	0.32355
750.567	10.39722
750.758	1.84481
750.95	10.16364
751.142	4.8495
751.333	14.58339
751.525	8.06784
751.717	11.65004
751.908	12.44874
752.1	14.32371
752.292	3.82673
752.483	17.35801
752.675	2.42813
752.866	16.22141
753.058	12.6578
753.249	20.70873
753.441	7.91265
753.632	12.7019
753.824	3.93947
754.015	5.63043
754.207	12.66433
754.398	14.11303
754.589	7.34089
754.781	12.42751
754.972	3.98031
755.164	10.6504
755.355	5.85098
755.546	14.27308
755.738	0.5131
755.929	17.7189
756.12	16.8926
756.311	16.31613
756.503	7.20693
756.694	18.24145
756.885	9.70954
757.076	25.2263
757.267	15.89643
757.458	21.62961
757.65	11.35113
757.841	21.56593
758.032	12.72313
758.223	18.71011
758.414	11.3152
758.605	14.62422
758.796	9.9954
758.987	18.10428
759.178	10.35475
759.369	12.07798
759.56	7.98453
759.751	13.81905
759.942	5.53077
760.133	14.56869
760.324	7.33926
760.514	14.32044
760.705	9.42531
760.896	17.91159
761.087	6.44402
761.278	10.78271
761.468	1.75494
761.659	13.5708
761.85	8.22793
762.041	12.46997
762.231	6.74298
762.422	16.81421
762.613	8.67389
762.803	16.4876
762.994	14.98515
763.185	14.99168
763.375	10.25185
763.566	14.17672
763.757	2.38238
763.947	14.29758
764.138	9.16558
764.328	20.34135
764.519	14.91165
764.709	18.55988
764.9	4.01136
765.09	17.2192
765.281	8.85358
765.471	15.04231
765.661	2.86111
765.852	16.09567
766.042	5.88693
766.232	5.45072
766.423	2.71406
766.613	8.50891
766.803	2.80229
766.994	12.08288
767.184	4.37406
767.374	20.32175
767.564	12.22171
767.755	17.77442
767.945	6.44565
768.135	11.55857
768.325	11.74804
768.515	17.5654
768.706	2.57028
768.896	13.87131
769.086	10.78761
769.276	19.65555
769.466	5.33636
769.656	12.47814
769.846	6.12381
770.036	16.63948
770.226	3.91659
770.416	13.55283
770.606	12.7803
770.796	13.82722
770.986	2.90196
771.176	14.22409
771.366	9.82225
771.555	13.98564
771.745	2.75164
771.935	10.69124
772.125	2.61113
772.315	12.81133
772.504	9.51515
772.694	12.8244
772.884	3.92149
773.074	9.76181
773.263	4.18781
773.453	13.68022
773.643	7.25921
773.832	13.5218
774.022	3.6323
774.212	7.61044
774.401	4.64364
774.591	3.55715
774.781	2.60459
774.97	9.38284
775.16	1.39873
775.349	8.87155
775.539	1.91507
775.728	11.3838
775.918	11.21556
776.107	19.41225
776.297	22.62393
776.486	51.70738
776.675	52.09716
776.865	52.37604
777.054	21.1904
777.243	18.47986
777.433	9.13618
777.622	11.97344
777.811	3.37089
778.001	15.70699
778.19	5.16481
778.379	9.92352
778.568	4.95242
778.758	13.5708
778.947	7.43237
779.136	13.61816
779.325	0.64872
779.514	12.30501
779.703	4.53091
779.892	13.34051
780.082	2.75654
780.271	9.11331
780.46	4.76944
780.649	14.53766
780.838	4.46556
781.027	15.92909
781.216	4.18127
781.405	10.20448
781.594	3.08332
781.783	14.34004
781.971	10.52463
782.16	14.32534
782.349	7.50915
782.538	11.16329
782.727	6.90144
782.916	12.30174
783.105	5.48176
783.293	12.46017
783.482	8.28021
783.671	14.45273
783.86	4.91321
784.048	9.73077
784.237	-1.51483
784.426	8.74577
784.614	-0.09641
784.803	12.93546
784.992	-3.61156
785.18	12.16781
785.369	3.5065
785.557	14.21429
785.746	7.10565
785.935	9.95783
786.123	2.7157
786.312	5.08966
786.5	3.98031
786.689	15.89153
786.877	3.6029
787.065	15.21379
787.254	3.00326
787.442	9.62623
787.631	3.50486
787.819	14.31065
788.007	5.80361
788.196	13.93011
788.384	6.46689
788.572	19.35673
788.761	-0.73208
788.949	7.91429
789.137	2.46571
789.325	10.73698
789.513	2.06703
789.702	11.05712
789.89	2.76308
790.078	7.34252
790.266	-1.49686
790.454	8.81274
790.642	4.49823
790.83	12.88646
791.018	3.88392
791.207	6.51426
791.395	7.45361
791.583	7.77706
791.771	6.17446
791.959	8.87645
792.146	0.36603
792.334	10.5328
792.522	1.33337
792.71	10.79415
792.898	0.51963
793.086	18.0308
793.274	-0.38401
793.462	18.02917
793.65	9.80918
793.837	9.10024
794.025	6.51916
794.213	6.97496
794.401	5.02758
794.588	11.2662
794.776	7.7689
794.964	10.28288
795.151	5.17952
795.339	7.7738
795.527	4.95896
795.714	6.16465
795.902	1.7435
796.089	6.35253
796.277	1.65363
796.465	12.40627
796.652	5.73826
796.84	11.52264
797.027	0.63565
797.215	9.55436
797.402	6.13852
797.59	13.28988
797.777	1.0752
797.964	12.02081
798.152	-0.58827
798.339	17.22737
798.526	-1.29912
798.714	5.75133
798.901	7.65781
799.088	13.96441
799.276	4.95733
799.463	11.29396
799.65	-5.08737
799.837	10.30575
800.025	-4.3993
800.212	12.67577
800.399	-1.63086
800.586	12.6088
800.773	4.20905
800.96	10.27962
801.148	4.64854
801.335	12.39974
801.522	2.82027
801.709	5.58469
801.896	0.6667
802.083	10.63897
802.27	-1.94789
802.457	10.33352
802.644	-0.08334
802.831	10.5083
803.018	2.66014
803.204	4.84623
803.391	-0.16994
803.578	8.44193
803.765	2.80393
803.952	9.293
804.139	-2.26493
804.326	10.83171
804.512	-0.2108
804.699	15.0815
804.886	-0.02124
805.073	4.57992
805.259	2.02454
805.446	20.99936
805.633	2.94444
805.819	17.01508
806.006	5.53894
806.192	10.13261
806.379	0.22387
806.566	11.12083
806.752	0.23367
806.939	8.10705
807.125	-2.30578
807.312	12.77377
807.498	2.58335
807.685	11.92444
807.871	1.76965
808.058	9.63603
808.244	-0.33662
808.43	9.07084
808.617	4.74003
808.803	12.4863
808.99	0.31047
809.176	9.57723
809.362	1.66834
809.549	10.65531
809.735	-3.0461
809.921	7.5843
810.107	2.97712
810.293	14.08853
810.48	6.66456
810.666	11.61574
810.852	-1.00498
811.038	7.93062
811.224	3.2124
811.41	6.72501
811.597	1.47226
811.783	7.35069
811.969	-3.53801
812.155	8.00413
812.341	-0.66671
812.527	6.00945
812.713	-2.59177
812.899	9.44328
813.085	2.04905
813.271	11.3348
813.456	-0.94288
813.642	6.23654
813.828	2.03108
814.014	12.66597
814.2	1.28599
814.386	12.72803
814.572	-0.88732
814.757	9.88922
814.943	7.50589
815.129	10.38906
815.315	-0.03105
815.5	12.24457
815.686	1.6618
815.872	9.03654
816.057	-4.1754
816.243	16.38962
816.429	-1.54261
816.614	10.79415
816.8	1.97062
816.985	13.84191
817.171	-0.76966
817.356	13.54467
817.542	-1.41351
817.727	9.22276
817.913	-4.71147
818.098	8.78824
818.284	-3.61646
818.469	8.7278
818.655	0.58663
818.84	12.81296
819.025	1.41344
819.211	11.82154
819.396	2.08827
819.581	7.31802
819.767	0.20753
819.952	12.67087
820.137	3.3235
820.322	6.3803
820.508	8.2459
820.693	13.26375
820.878	0.96572
821.063	8.31124
821.248	3.68949
821.433	6.77238
821.618	-1.9626
821.804	9.76344
821.989	-3.42525
822.174	10.99179
822.359	7.00109
822.544	8.22957
822.729	2.17487
822.914	6.20223
823.099	0.25165
823.284	8.6935
823.469	-2.13419
823.653	8.15932
823.838	1.18141
824.023	6.03069
824.208	-2.80259
824.393	11.66311
824.578	4.74167
824.762	8.16749
824.947	1.96409
825.132	6.3607
825.317	0.00163
825.501	10.89868
825.686	-0.82522
825.871	8.88299
826.056	-0.62913
826.24	9.81081
826.425	2.27127
826.609	10.97545
826.794	2.47224
826.979	9.63767
827.163	2.76635
827.348	12.69047
827.532	-0.44284
827.717	8.66246
827.901	7.39643
828.086	8.74414
828.27	0.24674
828.455	12.5843
828.639	1.00004
828.823	12.13841
829.008	1.00167
829.192	6.43095
829.376	5.51117
829.561	13.46627
829.745	0.47388
829.929	6.95372
830.114	1.65363
830.298	11.56674
830.482	0.61604
830.666	12.85216
830.85	1.61605
831.035	5.95227
831.219	-2.23224
831.403	5.2367
831.587	-4.09205
831.771	10.83335
831.955	1.28926
832.139	10.0248
832.323	-1.16512
832.507	6.19243
832.691	1.26801
832.875	4.98837
833.059	-1.15859
833.243	0.15197
833.427	0.20753
833.611	10.53607
833.795	-2.48391
833.979	7.40297
834.163	-1.5132
834.346	10.66347
834.53	-0.61932
834.714	9.39264
834.898	-1.09322
835.082	8.25734
835.265	0.48695
835.449	0.835
835.633	-0.81051
835.816	11.423
836	0.48205
836.184	5.32492
836.367	3.79242
836.551	9.56416
836.735	0.5229
836.918	4.98347
837.102	-2.46267
837.285	6.28882
837.469	-1.55079
837.652	8.29001
837.836	-1.97731
838.019	5.03738
838.203	3.11273
838.386	10.37599
838.569	-4.14925
838.753	13.40094
838.936	-3.1033
839.12	9.99703
839.303	0.75003
839.486	10.5279
839.669	-0.2108
839.853	9.16395
840.036	-2.67185
840.219	7.98943
840.402	-2.87286
840.586	9.71934
840.769	-0.16994
840.952	3.12907
841.135	3.69112
841.318	8.68369
841.501	-0.11439
841.684	9.20152
841.868	3.99338
842.051	7.34252
842.234	-0.05883
842.417	5.26774
842.6	0.34806
842.783	10.07217
842.966	-0.60135
843.149	14.4217
843.331	2.9281
843.514	25.814
843.697	22.32189
843.88	34.721
844.063	12.40627
844.246	15.89643
844.429	-0.23694
844.611	11.47364
844.794	4.30218
844.977	7.96329
845.16	-0.24184
845.342	5.3625
845.525	-4.46631
845.708	2.66831
845.89	-0.39055
846.073	8.05967
846.256	-2.53458
846.438	6.8753
846.621	4.70246
846.803	11.4671
846.986	-1.67171
847.168	4.43615
847.351	-0.88405
847.533	7.45034
847.716	-0.2974
847.898	9.89902
848.081	-1.66191
848.263	6.68743
848.446	-1.91521
848.628	11.55857
848.81	-4.3372
848.993	4.37406
849.175	-5.95362
849.357	8.05804
849.539	4.02279
849.722	6.64169
849.904	0.04249
850.086	7.30168
850.268	5.35433
850.451	15.32974
850.633	-4.46468
850.815	6.0601
850.997	7.85058
851.179	6.75278
851.361	-0.48206
851.543	6.77402
851.725	5.41968
851.907	11.12899
852.089	6.49629
852.271	12.43731
852.453	6.43911
852.635	15.73965
852.817	2.72713
852.999	5.87222
853.181	-3.55109
853.363	6.83936
853.545	-1.85311
853.727	11.63207
853.908	1.17161
854.09	9.63276
854.272	1.67651
854.454	7.49118
854.636	0.84807
854.817	6.74298
854.999	-2.41364
855.181	9.08228
855.362	-0.49023
855.544	8.98263
855.726	2.11278
855.907	9.703
856.089	-2.09007
856.27	8.40599
856.452	-2.43979
856.634	15.02924
856.815	-2.18975
856.997	10.51156
857.178	-4.19011
857.36	8.79151
857.541	-1.13407
857.722	2.78759
857.904	-0.56376
858.085	9.13455
858.267	3.17809
858.448	6.93902
858.629	-3.87795
858.811	6.8704
858.992	-1.83677
859.173	7.23307
859.354	-2.52804
859.536	8.4354
859.717	-4.73108
859.898	7.62024
860.079	-1.27298
860.26	9.46778
860.441	-1.22722
860.623	7.74276
860.804	-5.21976
860.985	9.20642
861.166	-2.09824
861.347	3.07515
861.528	-3.83873
861.709	7.59083
861.89	-1.62759
862.071	10.09504
862.252	0.24838
862.433	9.14108
862.614	7.28535
862.794	3.37742
862.975	1.8105
863.156	8.37332
863.337	-0.27453
863.518	7.24941
863.699	-1.65374
863.879	9.76998
864.06	-2.80096
864.241	6.09931
864.422	-0.51474
864.602	8.88952
864.783	1.81213
864.964	8.80621
865.144	-7.73686
865.325	9.70464
865.506	0.59316
865.686	8.56118
865.867	0.79742
866.047	9.2636
866.228	1.53762
866.408	3.70746
866.589	-3.1131
866.769	8.36352
866.95	-3.15886
867.13	6.09931
867.31	-0.36277
867.491	9.04797
867.671	-0.67815
867.852	7.47811
868.032	1.06376
868.212	9.35997
868.393	2.45427
868.573	8.91076
868.753	-4.85039
868.933	7.01416
869.113	-4.58889
869.294	5.07169
869.474	1.03435
869.654	7.4095
869.834	-0.39218
870.014	9.68504
870.194	-4.48429
870.374	7.43237
870.555	-2.39403
870.735	7.95022
870.915	0.64545
871.095	9.17702
871.275	0.45264
871.455	10.5671
871.634	-0.11765
871.814	7.86364
871.994	2.36277
872.174	9.86635
872.354	1.58011
872.534	11.73497
872.714	-2.62936
872.894	8.27694
873.073	-2.39403
873.253	9.74548
873.433	3.116
873.613	3.90352
873.792	-3.82402
873.972	10.76964
874.152	-2.5264
874.331	11.26946
874.511	2.1667
874.691	4.73513
874.87	-1.01968
875.05	8.18056
875.229	-1.31547
875.409	8.65102
875.588	1.54089
875.768	6.2104
875.947	6.13525
876.127	8.42559
876.306	-3.04446
876.486	9.3469
876.665	-2.88594
876.844	11.91791
877.024	4.67632
877.203	9.09371
877.382	-1.5132
877.562	14.70914
877.741	-2.7029
877.92	10.44133
878.1	3.6078
878.279	12.47977
878.458	-3.64751
878.637	11.44423
878.816	1.47553
878.996	6.45708
879.175	0.32355
879.354	5.42295
879.533	3.3137
879.712	8.42069
879.891	-3.59031
880.07	18.14184
880.249	-0.45591
880.428	12.12697
880.607	1.58991
880.786	6.88511
880.965	4.77761
881.144	4.3953
881.323	-2.88267
881.502	8.455
881.68	0.41995
881.859	8.09071
882.038	0.18628
882.217	10.01336
882.396	2.04905
882.574	4.52601
882.753	0.27289
882.932	13.73739
883.111	1.18141
883.289	5.05372
883.468	-1.18964
883.647	9.24236
883.825	3.87738
884.004	9.14108
884.182	-4.46141
884.361	8.13155
884.539	2.37584
884.718	11.46384
884.896	-3.26345
885.075	5.77256
885.253	-6.1759
885.432	7.81137
885.61	1.20429
885.789	8.02374
885.967	-3.27816
886.145	10.78925
886.324	-0.54906
886.502	6.94065
886.68	1.05723
886.859	7.33109
887.037	3.39376
887.215	10.45929
887.393	1.3056
887.572	7.93716
887.75	-0.53108
887.928	8.85032
888.106	2.60949
888.284	13.31274
888.462	0.03595
888.64	10.10974
888.819	4.92138
888.997	13.16575
889.175	0.11439
889.353	5.60756
889.531	-2.20773
889.709	5.14521
889.887	-2.39893
890.065	9.90065
890.242	0.36603
890.42	12.6627
890.598	0.26635
890.776	6.29698
890.954	-2.50189
891.132	4.70572
891.309	-1.78938
891.487	7.21183
891.665	-1.7093
891.843	7.80157
892.02	-2.92189
892.198	7.51079
892.376	-1.8335
892.553	5.52587
892.731	-2.20446
892.909	8.94016
893.086	-1.83023
893.264	8.67553
893.441	-2.94477
893.619	9.79938
893.797	-1.89396
893.974	10.48543
894.151	-0.06863
894.329	9.14925
894.506	-3.99562
894.684	9.2832
894.861	1.37259
895.039	3.44278
895.216	-0.84973
895.393	10.22898
895.571	-2.55746
895.748	5.40824
895.925	3.54244
896.102	10.16691
896.28	0.33662
896.457	5.92613
896.634	-1.8286
896.811	10.07053
896.988	-5.08084
897.166	5.13214
897.343	0.32191
897.52	10.68797
897.697	-0.94615
897.874	7.44544
898.051	-2.41201
898.228	6.54204
898.405	-4.73762
898.582	5.76766
898.759	0.49185
898.936	9.34364
899.113	-0.14217
899.29	9.0055
899.467	2.61766
899.643	10.63407
899.82	-1.40861
899.997	10.42336
900.174	-3.07224
900.351	8.45827
900.527	-1.63903
900.704	4.29564
900.881	3.19116
901.058	5.93594
901.234	-0.52291
901.411	17.0853
901.588	0.34969
901.764	9.99866
901.941	-0.20263
902.117	8.33085
902.294	-4.21953
902.471	9.11168
902.647	-1.41678
902.824	8.63796
903	-1.3269
903.176	9.2783
903.353	-1.56713
903.529	6.22183
903.706	-0.84647
903.882	14.26818
904.058	-0.48533
904.235	5.61899
904.411	-1.13244
904.587	4.78088
904.764	-7.13535
904.94	10.37436
905.116	0.11439
905.292	6.03723
905.469	0.48858
905.645	5.91306
905.821	4.14206
905.997	3.02777
906.173	-2.19466
906.349	6.7005
906.525	-0.36113
906.702	7.43237
906.878	-3.61156
907.054	9.74384
907.23	-2.37442
907.406	8.59548
907.582	-0.0621
907.757	7.75746
907.933	-6.55183
908.109	8.1969
908.285	1.44122
908.461	6.841
908.637	-3.13598
908.813	8.51544
908.988	1.20592
909.164	9.12801
909.34	-1.5083
909.516	6.04866
909.691	0.20262
909.867	8.81438
910.043	-4.57418
910.219	8.32431
910.394	-0.26962
910.57	12.01428
910.745	0.05556
910.921	8.74904
911.097	-4.718
911.272	3.78098
911.448	0.71245
911.623	6.73808
911.799	-2.46594
911.974	5.59122
912.149	-2.11785
912.325	9.82878
912.5	0.18792
912.676	5.44909
912.851	-1.64557
913.026	10.70431
913.202	-3.8567
913.377	3.55388
913.552	-0.97393
913.727	9.62786
913.903	0.30884
914.078	5.53077
914.253	4.33975
914.428	10.92972
914.603	-4.4467
914.779	8.19363
914.954	-0.94451
915.129	12.26907
915.304	0.32845
915.479	6.58124
915.654	1.79742
915.829	6.6858
916.004	-1.22068
916.179	10.80558
916.354	-4.5464
916.529	7.0109
916.704	-5.1217
916.879	14.0967
917.053	4.17801
917.228	4.26296
917.403	1.46736
917.578	8.06784
917.753	-2.03614
917.927	3.40193
918.102	-5.33253
918.277	2.8121
918.452	-5.0743
918.626	5.9147
918.801	0.29903
918.976	4.20088
919.15	0.7631
919.325	11.619
919.499	0.23694
919.674	2.90523
919.849	-0.16341
920.023	12.03714
920.198	2.04415
920.372	6.53387
920.547	-1.09812
920.721	3.5065
920.895	-0.57357
921.07	9.46942
921.244	-1.99365
921.419	9.58213
921.593	-2.24368
921.767	7.68558
921.942	-3.98745
922.116	5.21546
922.29	-0.82032
922.464	5.9049
922.639	-5.40935
922.813	7.72316
922.987	3.58656
923.161	5.64023
923.335	-3.04119
923.509	8.36025
923.683	-3.9564
923.858	8.40272
924.032	1.69448
924.206	9.60336
924.38	-3.94986
924.554	8.05477
924.728	0.5899
924.902	11.14859
925.075	3.12907
925.249	8.79641
925.423	3.2173
925.597	5.81177
925.771	-0.36113
925.945	9.21622
926.119	4.45085
926.292	6.02089
926.466	0.88729
926.64	6.62045
926.814	-3.88449
926.987	7.06154
927.161	-1.68969
927.335	6.56491
927.508	0.10131
927.682	4.7237
927.856	-1.17983
928.029	8.73597
928.203	2.3497
928.376	6.61392
928.55	-1.11937
928.723	3.35128
928.897	-1.48378
929.07	4.35773
929.244	-1.85801
929.417	5.81177
929.59	0.84317
929.764	7.39643
929.937	3.54408
930.111	11.96364
930.284	-0.11275
930.457	7.87181
930.63	-3.15396
930.804	8.2312
930.977	-0.95432
931.15	5.74316
931.323	2.87745
931.497	7.3899
931.67	-3.07224
931.843	10.06563
932.016	-1.02785
932.189	6.8753
932.362	-0.10295
932.535	6.14995
932.708	-0.73698
932.881	9.47105
933.054	-1.50503
933.227	8.87972
933.4	-4.78174
933.573	6.80342
933.746	-2.86796
933.919	7.3899
934.092	-5.76075
934.264	7.46505
934.437	-0.05719
934.61	5.02921
934.783	1.09971
934.956	4.30218
935.128	0.09314
935.301	7.32782
935.474	-4.10512
935.646	7.28698
935.819	-4.94845
935.992	7.05664
936.164	-3.09676
936.337	10.40049
936.51	-3.94823
936.682	6.80342
936.855	-8.68655
937.027	12.54184
937.2	-3.06734
937.372	7.68558
937.545	-2.01489
937.717	9.0251
937.889	0.34642
938.062	9.17702
938.234	-3.45793
938.406	5.99312
938.579	3.00653
938.751	9.20316
938.923	-1.46744
939.096	7.33926
939.268	-0.90203
939.44	9.27503
939.612	1.78108
939.784	8.95813
939.957	1.75821
940.129	6.18916
940.301	-2.11948
940.473	11.2172
940.645	1.31867
940.817	14.01177
940.989	0.41669
941.161	3.8153
941.333	-1.06381
941.505	6.30679
941.677	-2.21427
941.849	3.92149
942.021	-0.4265
942.193	6.13361
942.365	-2.28127
942.537	8.67063
942.708	1.79252
942.88	8.4452
943.052	-2.97909
943.224	4.3953
943.395	5.41478
943.567	8.58242
943.739	-6.32464
943.911	4.09958
944.082	-0.36277
944.254	10.26818
944.425	-2.36952
944.597	6.44728
944.769	2.3644
944.94	8.91729
945.112	3.38232
945.283	14.78263
945.455	-4.8749
945.626	7.13342
945.798	-4.06917
945.969	4.52764
946.14	2.45917
946.312	11.423
946.483	-0.00817
946.655	7.4144
946.826	-1.57366
946.997	10.35149
947.168	-1.47234
947.34	5.36577
947.511	-0.23041
947.682	5.97515
947.853	-3.48408
948.025	10.00683
948.196	1.16997
948.367	9.54946
948.538	-2.9366
948.709	5.44909
948.88	-0.71574
949.051	8.32595
949.222	-0.75822
949.393	8.03517
949.564	-2.20773
949.735	4.86747
949.906	-1.27951
950.077	9.10678
950.248	0.40198
950.419	10.43479
950.59	-0.95595
950.761	8.07111
950.931	2.31539
951.102	6.53387
951.273	0.01471
951.444	5.73172
951.614	1.42488
951.785	6.47506
951.956	-3.18828
952.126	6.73808
952.297	2.49675
952.468	5.09293
952.638	-3.02975
952.809	7.40297
952.98	-3.63607
953.15	8.85195
953.321	-4.75396
953.491	2.27127
953.662	-3.95313
953.832	6.60575
954.002	-5.326
954.173	5.23016
954.343	-3.14252
954.514	2.64707
954.684	-4.44016
954.854	10.86112
955.025	-0.31048
955.195	3.81203
955.365	-2.5215
955.535	5.89836
955.706	0.38074
955.876	7.09094
956.046	3.11764
956.216	8.09725
956.386	-2.23551
956.557	6.62535
956.727	-2.07699
956.897	10.09177
957.067	-3.75047
957.237	6.39827
957.407	-0.65854
957.577	6.64169
957.747	-4.8226
957.917	6.5208
958.087	-3.32065
958.257	7.00763
958.427	1.15854
958.596	3.88555
958.766	-0.39055
958.936	3.86268
959.106	0.10458
959.276	4.74984
959.445	-4.58072
959.615	6.64169
959.785	0.73532
959.955	10.50993
960.124	-3.28307
960.294	8.90749
960.464	-1.98875
960.633	3.34148
960.803	-5.3309
960.972	5.56345
961.142	-3.98582
961.311	4.90668
961.481	-2.42999
961.65	7.27718
961.82	3.95417
961.989	9.68177
962.159	-2.30088
962.328	11.26946
962.498	1.50821
962.667	1.79416
962.836	-4.5562
963.006	6.82793
963.175	-7.50148
963.344	8.84868
963.513	-6.38184
963.683	7.61534
963.852	-4.35518
964.021	7.58103
964.19	-3.90083
964.359	8.86338
964.528	-1.50339
964.698	7.30658
964.867	-2.82711
965.036	8.06621
965.205	1.7337
965.374	8.30308
965.543	0.48205
965.712	6.55511
965.881	-3.72596
966.05	5.66637
966.219	-0.53598
966.387	7.99433
966.556	-2.48391
966.725	6.14178
966.894	2.13565
967.063	5.29551
967.232	-2.49862
967.4	5.5226
967.569	-3.59358
967.738	4.51294
967.906	-3.49225
968.075	6.00292
968.244	-2.09007
968.412	6.80342
968.581	-0.03595
968.75	7.12525
968.918	-4.26692
969.087	1.13729
969.255	1.60625
969.424	6.96025
969.592	2.52943
969.761	13.36664
969.929	-0.54742
970.098	6.80179
970.266	-1.13407
970.434	6.77892
970.603	0.0817
970.771	9.0251
970.939	-4.63138
971.108	8.95486
971.276	-6.07783
971.444	9.08718
971.612	-6.05005
971.781	8.4844
971.949	9.6785
972.117	5.70885
972.285	2.01637
972.453	4.45412
972.621	1.85134
972.789	5.49973
972.957	2.22879
973.125	8.12175
973.293	2.19447
973.461	9.57233
973.629	1.19939
973.797	4.92955
973.965	-1.29586
974.133	7.46995
974.301	-3.8992
974.469	10.38416
974.637	-2.39403
974.805	10.24205
974.972	-1.11283
975.14	8.78987
975.308	0.08497
975.476	3.00163
975.643	-3.93515
975.811	1.44448
975.979	3.78915
976.146	8.2116
976.314	0.94121
976.482	5.85425
976.649	2.53433
976.817	7.14322
976.984	-2.19629
977.152	2.88562
977.319	0.10458
977.487	6.99783
977.654	1.59971
977.822	4.92138
977.989	-2.13746
978.156	5.00961
978.324	-1.85474
978.491	6.40971
978.658	-6.01899
978.826	6.32639
978.993	-2.91862
979.16	6.06827
979.328	-0.1487
979.495	6.13198
979.662	0.14543
979.829	9.02184
979.996	-1.36776
980.163	10.48216
980.33	-0.93798
980.498	4.20741
980.665	-3.69654
980.832	4.24172
980.999	-2.34991
981.166	6.23164
981.333	1.29906
981.5	10.55403
981.667	7.47485
981.833	7.38663
982	-0.3693
982.167	6.23164
982.334	-2.44142
982.501	6.80342
982.668	-0.01144
982.834	4.93119
983.001	1.17814
983.168	13.13309
983.335	-4.91413
983.501	7.62187
983.668	-3.25855
983.835	9.87942
984.001	1.84481
984.168	5.25794
984.334	1.87095
984.501	6.34763
984.668	-1.58674
984.834	3.89699
985.001	-7.94445
985.167	11.18616
985.334	-5.34561
985.5	4.46882
985.666	-4.5039
985.833	3.45095
985.999	-3.81585
986.165	8.07111
986.332	2.18631
986.498	4.99327
986.664	-2.8173
986.831	8.68696
986.997	-1.15859
987.163	2.77779
987.329	-3.1703
987.495	5.08803
987.662	-1.81062
987.828	4.11592
987.994	-2.15544
988.16	7.66598
988.326	0.3742
988.492	6.13035
988.658	-3.40237
988.824	7.95676
988.99	-6.6499
989.156	7.61534
989.322	3.94437
989.488	7.76563
989.654	-3.01505
989.82	5.88039
989.985	3.86268
990.151	10.93952
990.317	0.61277
990.483	5.79544
990.648	-0.26472
990.814	11.30376
990.98	1.00494
991.146	12.599
991.311	0.78435
991.477	9.6589
991.643	-7.19419
991.808	4.65998
991.974	-7.09122
992.139	6.77565
992.305	-4.89125
992.47	7.46341
992.636	-0.719
992.801	8.20996
992.967	-0.44774
993.132	8.15606
993.298	1.46082
993.463	6.34109
993.628	-1.92011
993.794	7.33272
993.959	0.82193
994.124	4.85767
994.29	2.4461
994.455	7.10401
994.62	-2.92026
994.785	9.78631
994.95	-4.12147
995.116	4.22375
995.281	-2.82874
995.446	7.83424
995.611	-3.45793
995.776	7.23307
995.941	-1.77303
996.106	5.68598
996.271	2.6291
996.436	8.65919
996.601	-3.64915
996.766	9.04307
996.931	-0.57684
997.096	7.59573
997.261	-3.00524
997.425	4.99163
997.59	-8.50184
997.755	7.45361
997.92	-0.05719
998.085	8.89442
998.249	-5.11516
998.414	1.62912
998.579	-4.19501
998.744	1.28762
998.908	1.03272
999.073	9.78141
999.237	-0.1438
999.402	3.83327
999.567	-1.31547
999.731	7.26738
999.896	-3.93025
1000.06	13.71126
1000.225	0.31538
1000.389	10.14077
1000.553	-1.26807
1000.718	8.47623
1000.882	-4.27509
1001.047	7.43401
1001.211	-1.56876
1001.375	6.99293
1001.54	-2.73068
1001.704	8.72127
1001.868	2.45754
1002.032	9.46288
1002.197	-4.83078
1002.361	4.94916
1002.525	-3.09186
1002.689	4.81845
1002.853	-3.04773
1003.017	3.42644
1003.181	-4.48429
1003.345	5.43275
1003.509	4.81682
1003.673	8.28674
1003.837	0.01961
1004.001	7.2004
1004.165	0.20099
1004.329	6.2006
1004.493	-3.98582
1004.657	9.01694
1004.821	-6.49953
1004.985	3.64374
1005.149	-3.66386
1005.312	6.19733
1005.476	-1.69786
1005.64	10.42173
1005.804	-1.05727
1005.967	11.16166
1006.131	1.88893
1006.295	4.77434
1006.458	-2.73395
1006.622	12.50754
1006.785	1.51801
1006.949	10.71901
1007.113	0.41832
1007.276	5.89183
1007.44	-2.84345
1007.603	7.22817
1007.767	1.50331
1007.93	3.77772
1008.093	-1.82533
1008.257	3.89045
1008.42	-7.45408
1008.584	7.10565
1008.747	-2.89901
1008.91	12.10411
1009.073	-0.54906
1009.237	9.86472
1009.4	-1.54261
1009.563	2.16833
1009.726	-8.0605
1009.889	13.00406
1010.053	0.59153
1010.216	5.19749
1010.379	0.55721
1010.542	15.56164
1010.705	1.23207
1010.868	8.45173
1011.031	-3.01341
1011.194	7.53692
1011.357	1.652
1011.52	6.99946
1011.683	-3.2226
1011.846	7.48465
1012.009	-3.14579
1012.171	7.9829
1012.334	0.64545
1012.497	9.86308
1012.66	0.54251
1012.823	9.68177
1012.985	-1.42332
1013.148	9.74548
1013.311	-0.60462
1013.473	2.70916
1013.636	-3.68837
1013.799	9.19009
1013.961	-0.0768
1014.124	5.2367
1014.286	-0.69939
1014.449	5.26121
1014.612	-1.60308
1014.774	5.92777
1014.936	-3.95476
1015.099	1.40854
1015.261	-1.57203
1015.424	10.57527
1015.586	0.96082
1015.748	4.85276
1015.911	-3.76191
1016.073	15.87683
1016.235	1.77945
1016.398	8.78497
1016.56	-2.9366
1016.722	3.11764
1016.884	-1.96587
1017.047	11.10286
1017.209	-4.48919
1017.371	-1.09976
1017.533	-4.75886
1017.695	11.71374
1017.857	0.1438
1018.019	9.16722
1018.181	-1.71911
1018.343	4.41327
1018.505	-3.70471
1018.667	2.00984
1018.829	0.0768
1018.991	8.39456
1019.153	2.18957
1019.315	7.08604
1019.477	-1.7665
1019.638	9.12801
1019.8	-6.76431
1019.962	9.12638
1020.124	-2.79442
1020.285	7.75256
1020.447	-2.02797
1020.609	9.68994
1020.77	-4.19501
1020.932	17.22247
1021.094	-1.26481
1021.255	3.87248
1021.417	2.88236
1021.578	7.93552
1021.74	-1.92665
1021.901	7.98616
1022.063	-2.25512
1022.224	9.94476
1022.386	1.85134
1022.547	10.60467
1022.709	-5.54501
1022.87	8.84541
1023.031	-1.7044
1023.193	5.09456
1023.354	-2.4022
1023.515	6.91614
1023.676	-1.73545
1023.838	9.0055
1023.999	3.55225
1024.16	3.61433
1024.321	2.52126
1024.482	7.36376
1024.644	-1.36449
1024.805	6.57634
1024.966	-0.95432
1025.127	5.27101
1025.288	-1.29912
1025.449	9.05941
1025.61	-1.37593
1025.771	8.91566
1025.932	1.35298
1026.093	10.37272
1026.253	-3.02812
1026.414	4.45739
1026.575	-4.08061
1026.736	2.34153
1026.897	0.41015
1027.058	10.89052
1027.218	-1.36286
1027.379	5.59776
1027.54	-1.6521
1027.7	4.69429
1027.861	-4.44997
1028.022	10.79088
1028.182	-4.43689
1028.343	7.07134
1028.504	-3.85834
1028.664	4.79722
1028.825	-0.47389
1028.985	5.26774
1029.146	-4.98768
1029.306	3.69112
1029.466	3.98521
1029.627	8.11848
1029.787	-0.93471
1029.948	6.42278
1030.108	-4.45487
1030.268	10.77291
1030.429	0.58663
1030.589	9.66217
1030.749	-4.77357
1030.909	6.01599
1031.07	-3.51677
1031.23	4.70736
1031.39	-2.80586
1031.55	7.0354
1031.71	-4.91576
1031.87	9.01367
1032.03	-1.69459
1032.19	3.87248
1032.35	1.31213
1032.51	2.47878
1032.67	1.03762
1032.83	1.88729
1032.99	-1.34815
1033.15	11.62064
1033.31	-1.65537
1033.47	3.49833
1033.63	0.03432
1033.79	6.23817
1033.949	-5.8768
1034.109	7.11708
1034.269	-3.70471
1034.429	11.472
1034.588	-2.22571
1034.748	5.51934
1034.908	-1.54588
1035.067	8.07438
1035.227	-1.89887
1035.387	6.93738
1035.546	-2.04104
1035.706	6.98803
1035.865	-2.90718
1036.025	5.32982
1036.184	-3.32883
1036.344	9.29627
1036.503	-0.43467
1036.662	9.12965
1036.822	-2.94314
1036.981	5.82321
1037.14	-1.77957
1037.3	7.84568
1037.459	-0.96249
1037.618	7.44544
1037.778	-1.8433
1037.937	7.28045
1038.096	-5.2263
1038.255	9.78141
1038.414	-2.47411
1038.573	9.81245
1038.733	0.47224
1038.892	8.2508
1039.051	0.05883
1039.21	12.05838
1039.369	-4.04792
1039.528	5.18769
1039.687	-0.40362
1039.846	10.62264
1040.005	-1.3122
1040.164	5.51934
1040.322	-5.21649
1040.481	9.14762
1040.64	-1.44293
1040.799	6.01599
1040.958	2.24839
1041.116	9.85818
1041.275	-0.97556
1041.434	6.511
1041.593	-2.04921
1041.751	5.53241
1041.91	-3.02158
1042.069	4.82826
1042.227	0.71898
1042.386	6.88184
1042.544	-3.31739
1042.703	6.04866
1042.861	0.32845
1043.02	7.37846
1043.178	-1.59164
1043.337	13.23272
1043.495	-0.58174
1043.653	1.75984
1043.812	-6.78556
1043.97	6.76258
1044.129	1.19939
1044.287	6.14015
1044.445	1.03925
1044.603	3.12254
1044.762	-6.74143
1044.92	8.84705
1045.078	1.7288
1045.236	8.69513
1045.394	1.30886
1045.552	9.92516
