Data from deut_74ms_54_SR4014911__0__16-28-59-807.txt Node

Date: Sun Jul 13 16:28:59 EDT 2025
User: cryst
Spectrometer: SR401491
Trigger mode: 0
Integration Time (sec): 7.400000E-2
Scans to average: 54
Electric dark correction enabled: true
Nonlinearity correction enabled: true
Boxcar width: 0
XAxis mode: Wavelengths
Number of Pixels in Spectrum: 3648
>>>>>Begin Spectral Data<<<<<
344.912	-125.73368
345.129	-113.68673
345.347	-135.17276
345.565	-123.08084
345.783	43.60211
346.001	38.69223
346.219	27.8833
346.437	42.29424
346.654	77.48394
346.872	29.29253
347.09	5.06345
347.308	76.59973
347.526	38.89347
347.743	21.94357
347.961	94.17797
348.179	55.22929
348.397	67.19319
348.614	104.96037
348.832	115.69837
349.05	111.76494
349.268	116.90237
349.485	138.6255
349.703	72.15816
349.921	150.99381
350.138	136.07898
350.356	122.21941
350.574	99.57974
350.791	106.00425
351.009	118.60795
351.227	120.41374
351.444	104.83992
351.662	117.70501
351.879	93.7964
352.097	114.47425
352.314	121.11596
352.532	107.97145
352.75	121.99872
352.967	130.10277
353.185	131.64708
353.402	100.16203
353.62	85.60121
353.837	142.53505
354.055	119.93221
354.272	167.02232
354.49	168.92509
354.707	171.84909
354.925	99.03761
355.142	135.0563
355.359	141.29207
355.577	157.18592
355.794	146.0231
356.012	172.97055
356.229	156.80521
356.446	121.35671
356.664	145.24133
356.881	173.45116
357.099	105.9641
357.316	128.67872
357.533	141.25197
357.751	114.87561
357.968	237.13932
358.185	159.59025
358.402	128.65866
358.62	180.37903
358.837	175.59378
359.054	104.45849
359.272	114.33378
359.489	114.93581
359.706	134.13385
359.923	144.45954
360.141	141.13168
360.358	147.72687
360.575	148.94951
360.792	137.18183
361.009	118.02606
361.226	128.01681
361.444	195.85043
361.661	148.58874
361.878	137.88362
362.095	128.39791
362.312	159.49007
362.529	145.90283
362.746	152.19627
362.963	117.46422
363.181	119.81182
363.398	134.85577
363.615	194.40973
363.832	104.05698
364.049	100.32266
364.266	194.80993
364.483	141.25197
364.7	134.49481
364.917	87.69042
365.134	152.93776
365.351	134.95604
365.568	159.59025
365.785	133.17126
366.002	88.85548
366.219	114.59466
366.436	168.00376
366.652	173.21085
366.869	142.39471
367.086	176.57492
367.303	112.18641
367.52	112.82863
367.737	182.70129
367.954	172.28967
368.171	125.16841
368.387	206.57334
368.604	140.00894
368.821	150.59298
369.038	123.98483
369.255	159.89077
369.471	109.05536
369.688	183.40193
369.905	179.05766
370.122	142.59519
370.339	151.01385
370.555	109.43672
370.772	116.17998
370.989	227.54727
371.205	124.42617
371.422	136.98132
371.639	117.74514
371.855	196.19059
372.072	132.81028
372.289	125.62979
372.505	194.00952
372.722	110.13922
372.939	148.62883
373.155	181.42007
373.372	127.23453
373.589	144.35931
373.805	116.24018
374.022	123.34287
374.238	114.43412
374.455	151.69525
374.671	151.01385
374.888	144.66
375.104	78.7901
375.321	93.3144
375.537	128.29762
375.754	147.82709
375.97	143.05628
376.187	191.54812
376.403	117.48429
376.62	129.94232
376.836	118.52769
377.053	133.75283
377.269	131.72731
377.486	110.25965
377.702	89.92006
377.918	100.7443
378.135	132.00808
378.351	158.66861
378.568	147.60661
378.784	137.04147
379	142.57514
379.217	127.6357
379.433	116.98264
379.649	174.21211
379.865	119.69144
380.082	175.93418
380.298	98.2545
380.514	197.07097
380.731	150.59298
380.947	107.63021
381.163	147.26586
381.379	128.99964
381.596	125.06811
381.812	181.05971
382.028	155.86345
382.244	122.94164
382.46	104.90014
382.676	198.01135
382.893	159.28972
383.109	137.02142
383.325	130.0426
383.541	169.62608
383.757	85.38023
383.973	153.59907
384.189	184.52292
384.405	144.90055
384.622	120.75482
384.838	139.76835
385.054	165.72034
385.27	185.34362
385.486	127.77611
385.702	110.96213
385.918	149.29024
386.134	142.41476
386.35	161.53359
386.566	186.40449
386.782	168.32423
386.998	172.65014
387.214	149.9316
387.43	159.1094
387.646	197.99134
387.861	159.87074
388.077	150.61302
388.293	163.87745
388.509	173.23088
388.725	162.65546
388.941	168.32423
389.157	131.0053
389.373	143.25675
389.588	166.22111
389.804	173.47118
390.02	204.81315
390.236	107.08823
390.452	133.65256
390.668	134.1539
390.883	192.5287
391.099	154.86154
391.315	161.13292
391.531	147.06542
391.746	134.31433
391.962	156.80521
392.178	154.08002
392.393	142.71547
392.609	209.83342
392.825	145.06092
393.041	120.95545
393.256	163.07615
393.472	180.81947
393.687	164.5986
393.903	196.01051
394.119	157.38629
394.334	169.12537
394.55	202.8528
394.766	167.88359
394.981	192.38862
395.197	199.81198
395.412	216.31245
395.628	185.804
395.843	209.23343
396.059	282.75747
396.274	187.9857
396.49	250.8224
396.705	191.54812
396.921	134.21406
397.136	190.54749
397.352	160.91254
397.567	157.60669
397.783	163.09619
397.998	171.58875
398.214	151.29443
398.429	120.45386
398.644	221.89044
398.86	158.96915
399.075	184.90325
399.29	149.61092
399.506	127.57553
399.721	162.39503
399.936	168.68474
400.152	139.3473
400.367	161.61373
400.582	168.7248
400.798	202.05261
401.013	135.99877
401.228	175.91415
401.444	177.69619
401.659	161.43342
401.874	220.21116
402.089	173.91173
402.304	193.02899
402.52	160.81237
402.735	127.79617
402.95	124.64684
403.165	179.67831
403.38	219.53142
403.596	156.16402
403.811	199.03172
404.026	235.32108
404.241	153.01792
404.456	161.03274
404.671	222.21029
404.886	181.7604
405.101	159.06933
405.316	178.13667
405.532	213.25309
405.747	173.61136
405.962	199.99204
406.177	187.36524
406.392	154.60103
406.607	205.45323
406.822	199.23179
407.037	215.85257
407.252	263.97995
407.467	255.25551
407.682	239.63672
407.896	271.56427
408.111	270.24714
408.326	292.41088
408.541	368.0717
408.756	376.66316
408.971	396.50158
409.186	393.04372
409.401	360.81079
409.616	211.45332
409.83	166.98226
410.045	156.40447
410.26	141.41236
410.475	141.97371
410.69	179.49813
410.905	184.92327
411.119	114.17323
411.334	154.10006
411.549	145.50192
411.764	194.97001
411.978	203.41291
412.193	176.31462
412.408	131.46658
412.623	119.16976
412.837	214.75282
413.052	176.51485
413.267	190.94774
413.481	154.98177
413.696	137.62296
413.911	150.93369
414.125	147.36608
414.34	125.44925
414.554	160.13119
414.769	192.76884
414.984	157.36625
415.198	100.26242
415.413	122.29966
415.627	182.84142
415.842	135.51751
416.056	176.97538
416.271	131.28608
416.485	188.64618
416.7	170.08671
416.914	157.34621
417.129	145.06092
417.343	163.01606
417.558	159.1094
417.772	184.60299
417.987	164.83898
418.201	142.33457
418.415	115.97931
418.63	152.05599
418.844	159.26968
419.059	173.21085
419.273	170.68754
419.487	214.01297
419.702	163.49684
419.916	240.05627
420.13	153.93974
420.345	146.72466
420.559	157.10577
420.773	152.17623
420.988	175.89413
421.202	200.37216
421.416	156.00371
421.63	156.02375
421.845	174.27218
422.059	160.53189
422.273	109.05536
422.487	172.3097
422.701	207.89342
422.916	227.16752
423.13	156.36439
423.344	136.50008
423.558	152.37664
423.772	134.43465
423.986	144.1388
424.201	154.56096
424.415	212.37322
424.629	183.66216
424.843	163.61703
425.057	193.72937
425.271	127.8764
425.485	128.37785
425.699	124.62678
425.913	208.07342
426.127	178.53711
426.341	152.25639
426.555	166.40138
426.769	188.9464
426.983	207.31339
427.197	182.48108
427.411	167.92364
427.625	230.98479
427.839	163.07615
428.053	161.8942
428.267	134.89588
428.481	190.70759
428.695	127.37494
428.908	119.93221
429.122	173.0106
429.336	185.70392
429.55	150.3124
429.764	186.14428
429.978	258.07078
430.191	252.40003
430.405	343.63613
430.619	334.09919
430.833	443.60034
431.047	592.60393
431.26	800.53151
431.474	945.8624
431.688	1073.87106
431.901	1137.16018
432.115	1372.43192
432.329	1557.04362
432.543	1704.42725
432.756	2078.81308
432.97	2136.92615
433.184	1453.67931
433.397	635.48507
433.611	239.4769
433.824	216.83231
434.038	189.04647
434.252	168.00376
434.465	150.27231
434.679	150.33244
434.892	182.14076
435.106	99.15808
435.319	142.19423
435.533	192.76884
435.747	201.47247
435.96	119.95227
436.174	214.73283
436.387	194.52979
436.601	193.68935
436.814	202.71277
437.027	141.63289
437.241	192.48868
437.454	134.23412
437.668	189.46676
437.881	222.15032
438.095	146.84493
438.308	177.7963
438.521	230.92484
438.735	173.11073
438.948	175.1933
439.161	177.55603
439.375	175.6138
439.588	196.93091
439.801	193.44922
440.015	181.27993
440.228	209.05344
440.441	229.60584
440.654	262.80221
440.868	244.99041
441.081	139.28715
441.294	226.32805
441.507	197.69122
441.721	165.94068
441.934	193.20909
442.147	166.86208
442.36	176.67504
442.573	198.67159
442.786	140.08914
443	215.2927
443.213	164.89907
443.426	176.5549
443.639	220.99084
443.852	193.94949
444.065	227.32741
444.278	203.99302
444.491	192.54872
444.704	193.80942
444.917	201.65251
445.13	205.2532
445.343	159.67039
445.556	259.16886
445.769	276.77234
445.982	223.46967
446.195	232.12388
446.408	201.63251
446.621	235.10128
446.834	188.24589
447.047	178.45702
447.26	176.93533
447.473	198.51154
447.686	205.57324
447.899	195.25015
448.111	232.9432
448.324	190.42741
448.537	201.93258
448.75	191.02779
448.963	175.1132
449.176	220.95085
449.388	223.24978
449.601	199.15176
449.814	182.30091
450.027	182.68127
450.239	223.38971
450.452	188.46606
450.665	166.70184
450.878	182.1808
451.09	193.66934
451.303	198.01135
451.516	180.65931
451.728	197.35109
451.941	129.86209
452.154	233.28291
452.366	231.1047
452.579	184.54294
452.792	235.94049
453.004	205.13319
453.217	179.57821
453.429	200.8523
453.642	190.96776
453.854	228.52661
454.067	249.54426
454.28	268.23141
454.492	142.61524
454.705	184.02248
454.917	174.95301
455.13	238.3381
455.342	238.03841
455.555	152.15619
455.767	271.58422
455.979	206.0933
456.192	228.98628
456.404	167.92364
456.617	207.01338
456.829	183.08164
457.041	235.36104
457.254	221.3107
457.466	173.61136
457.679	182.32093
457.891	241.51462
458.103	208.69344
458.315	197.03095
458.528	166.92217
458.74	184.98332
458.952	198.01135
459.165	199.79198
459.377	166.18105
459.589	147.4663
459.801	192.66879
460.014	213.09312
460.226	190.20726
460.438	201.51248
460.65	140.42997
460.862	212.25323
461.075	176.85524
461.287	169.94652
461.499	130.84485
461.711	133.21137
461.923	173.45116
462.135	187.28517
462.347	165.90062
462.559	192.30858
462.771	192.36861
462.983	161.91423
463.196	204.69313
463.408	218.53178
463.62	200.39216
463.832	233.16301
464.044	214.31291
464.256	222.69006
464.468	173.95178
464.68	206.75336
464.891	192.98897
465.103	169.40577
465.315	237.37908
465.527	158.88901
465.739	146.36386
465.951	159.95088
466.163	173.0106
466.375	155.82337
466.587	238.07837
466.799	167.16252
467.01	156.70503
467.222	176.2145
467.434	147.22577
467.646	157.56662
467.858	196.63078
468.069	192.32859
468.281	125.83039
468.493	130.88497
468.705	145.18119
468.916	161.43342
469.128	107.30904
469.34	146.74471
469.551	158.68865
469.763	111.5241
469.975	145.44179
470.186	167.94367
470.398	130.54401
470.61	155.22223
470.821	108.19225
471.033	137.64301
471.245	196.39068
471.456	129.94232
471.668	159.49007
471.879	144.53973
472.091	188.24589
472.302	211.19334
472.514	190.12721
472.725	164.49844
472.937	148.92947
473.148	139.0666
473.36	153.93974
473.571	176.93533
473.783	143.93834
473.994	162.41507
474.206	139.7884
474.417	150.63307
474.629	179.53817
474.84	187.16508
475.051	199.91202
475.263	130.22311
475.474	157.62673
475.685	163.25645
475.897	133.29158
476.108	216.01253
476.319	130.0426
476.531	159.63032
476.742	193.44922
476.953	195.53028
477.165	244.57094
477.376	167.6232
477.587	173.49121
477.798	174.15203
478.01	135.95867
478.221	189.30665
478.432	172.9305
478.643	160.43171
478.854	141.21188
479.065	266.1357
479.277	217.95198
479.488	193.38919
479.699	210.39339
479.91	194.24965
480.121	216.11251
480.332	195.85043
480.543	210.61338
480.754	147.06542
480.965	167.04235
481.176	198.05136
481.387	256.73306
481.598	186.78479
481.809	239.51685
482.02	339.37575
482.231	752.00618
482.442	1680.86761
482.653	3405.2383
482.864	5471.38293
483.075	8359.50274
483.286	11700.36192
483.497	15733.74362
483.708	18785.49148
483.919	21473.0572
484.13	23805.17702
484.341	27176.76074
484.551	31904.31939
484.762	36188.10361
484.973	37624.3754
485.184	25761.69528
485.395	8536.88624
485.605	2500.63241
485.816	1074.26061
486.027	527.53155
486.238	375.9473
486.449	410.20987
486.659	318.30368
486.87	281.97948
487.081	275.71484
487.291	272.34255
487.502	231.86409
487.713	223.08986
487.923	246.24879
488.134	199.19178
488.345	287.66436
488.555	255.09577
488.766	202.69276
488.976	254.31703
489.187	242.83308
489.398	222.86997
489.608	239.49687
489.819	194.40973
490.029	185.24354
490.24	258.19057
490.45	252.71954
490.661	237.1593
490.871	218.75171
491.082	173.1708
491.292	191.62817
491.503	232.56352
491.713	240.15616
491.924	209.39343
492.134	215.53265
492.344	190.76763
492.555	221.57058
492.765	232.18383
492.975	229.00627
493.186	242.19384
493.396	258.66974
493.607	157.58665
493.817	254.0175
494.027	197.61119
494.237	202.19265
494.448	196.75084
494.658	233.16301
494.868	171.34843
495.078	228.06692
495.289	264.01987
495.499	214.77282
495.709	157.26607
495.919	189.90706
496.129	208.19343
496.34	170.92786
496.55	160.45175
496.76	227.28744
496.97	230.14544
497.18	199.05173
497.39	166.62172
497.6	222.27026
497.81	228.86637
498.021	239.97635
498.231	228.34673
498.441	214.47288
498.651	203.97301
498.861	137.76332
499.071	212.05326
499.281	251.08201
499.491	213.61304
499.701	215.97254
499.911	213.15311
500.121	205.2132
500.331	230.34528
500.54	278.52811
500.75	226.76777
500.96	214.71283
501.17	186.10424
501.38	208.21343
501.59	230.22538
501.8	186.98494
502.01	148.30813
502.219	205.27321
502.429	244.3712
502.639	275.13619
502.849	228.28677
503.059	184.06252
503.268	208.45343
503.478	206.99337
503.688	224.24925
503.898	201.13238
504.107	198.51154
504.317	281.5805
504.527	222.65008
504.736	234.34197
504.946	189.9671
505.156	239.67668
505.365	198.57156
505.575	197.91131
505.785	200.55221
505.994	234.28203
506.204	191.52811
506.413	199.45187
506.623	150.77336
506.832	203.45292
507.042	199.31182
507.251	242.25376
507.461	216.63237
507.67	205.15319
507.88	183.50202
508.089	210.3534
508.299	212.09325
508.508	219.87129
508.718	154.50084
508.927	179.55819
509.137	242.3936
509.346	221.63055
509.555	177.25569
509.765	182.40101
509.974	355.89623
510.184	238.23821
510.393	190.92773
510.602	190.18725
510.812	232.20381
511.021	205.95329
511.23	267.55281
511.439	180.39905
511.649	165.8205
511.858	213.813
512.067	218.4918
512.276	229.94558
512.486	395.4285
512.695	224.709
512.904	167.84353
513.113	206.1133
513.322	196.39068
513.531	217.15222
513.741	240.01631
513.95	154.70123
514.159	213.97297
514.368	160.21133
514.577	185.9241
514.786	177.69619
514.995	173.03062
515.204	196.33065
515.413	178.77736
515.622	189.88705
515.831	175.15325
516.04	190.68758
516.249	145.48188
516.458	177.31576
516.667	203.57294
516.876	241.2749
517.085	175.45361
517.294	211.07335
517.503	182.1808
517.712	182.58118
517.921	211.25333
518.13	232.64345
518.339	230.42522
518.547	289.25992
518.756	174.23213
518.965	204.45309
519.174	189.44675
519.383	207.59341
519.591	152.37664
519.8	153.85959
520.009	201.95259
520.218	179.7584
520.426	179.31794
520.635	214.23293
520.844	211.69329
521.053	219.43146
521.261	234.68167
521.47	233.90237
521.679	203.39291
521.887	205.49323
522.096	181.64028
522.304	159.63032
522.513	145.00078
522.722	186.20433
522.93	234.40192
523.139	186.30441
523.347	161.8942
523.556	165.62019
523.764	179.29792
523.973	182.64123
524.182	153.4588
524.39	226.62786
524.598	171.10811
524.807	151.97583
525.015	187.88563
525.224	201.77254
525.432	190.92773
525.641	129.5813
525.849	182.64123
526.057	189.84702
526.266	235.401
526.474	154.78138
526.683	159.91081
526.891	224.10933
527.099	165.94068
527.308	187.10504
527.516	145.96296
527.724	206.95337
527.932	157.24603
528.141	223.52963
528.349	253.73795
528.557	198.91168
528.765	167.64323
528.974	145.5821
529.182	159.99095
529.39	197.73124
529.598	160.17126
529.806	154.0199
530.015	208.03342
530.223	181.38003
530.431	160.8324
530.639	127.47523
530.847	155.32242
531.055	186.82482
531.263	185.52377
531.471	141.19183
531.679	127.29471
531.887	182.24086
532.095	205.69326
532.303	212.91315
532.511	166.50153
532.719	175.67387
532.927	165.43991
533.135	198.45151
533.343	237.8586
533.551	208.27343
533.759	172.50996
533.967	232.14386
534.175	186.78479
534.383	223.76951
534.591	222.13032
534.798	231.32453
535.006	142.59519
535.214	179.23785
535.422	151.0339
535.63	220.21116
535.837	134.17396
536.045	162.39503
536.253	191.8483
536.461	181.40005
536.668	181.92055
536.876	219.23154
537.084	236.59986
537.292	204.75314
537.499	228.94631
537.707	200.23212
537.915	217.27219
538.122	233.44277
538.33	242.43355
538.538	199.83199
538.745	206.1133
538.953	222.23028
539.16	201.19239
539.368	169.6461
539.575	175.81404
539.783	175.07316
539.99	236.2402
540.198	194.62984
540.406	211.49331
540.613	198.05136
540.82	156.5848
541.028	207.73341
541.235	188.18585
541.443	240.73551
541.65	273.89904
541.858	230.50516
542.065	192.5287
542.272	189.02646
542.48	286.64715
542.687	177.03545
542.895	232.18383
543.102	180.75941
543.309	216.45242
543.516	213.47306
543.724	207.3934
543.931	193.52927
544.138	223.4097
544.346	182.12074
544.553	214.53287
544.76	214.8528
544.967	188.54611
545.174	213.15311
545.382	188.88636
545.589	227.58724
545.796	241.55458
546.003	147.2859
546.21	201.33243
546.417	285.01155
546.624	202.75277
546.832	200.69225
547.039	214.41289
547.246	252.10048
547.453	199.71195
547.66	170.78767
547.867	199.45187
548.074	201.57249
548.281	175.31344
548.488	191.46807
548.695	199.872
548.902	191.40803
549.109	181.38003
549.316	153.77943
549.523	174.63262
549.73	178.0766
549.936	198.79164
550.143	192.66879
550.35	157.52654
550.557	164.01768
550.764	158.28793
550.971	211.49331
551.178	164.73882
551.384	235.32108
551.591	234.32199
551.798	224.38918
552.005	181.88051
552.211	217.19221
552.418	186.66469
552.625	151.61509
552.832	206.43333
553.038	217.09224
553.245	215.87257
553.452	236.77968
553.658	175.59378
553.865	186.90488
554.072	201.75254
554.278	192.92893
554.485	267.05384
554.691	257.03256
554.898	203.03283
555.105	227.54727
555.311	194.36971
555.518	230.78495
555.724	217.71205
555.931	153.2584
556.137	162.71556
556.344	206.95337
556.55	202.59274
556.757	203.61295
556.963	190.28732
557.17	200.91232
557.376	200.43218
557.582	268.19149
557.789	187.24514
557.995	179.59823
558.202	178.67726
558.408	214.77282
558.614	154.03994
558.821	204.45309
559.027	221.25072
559.233	222.11033
559.439	273.22058
559.646	209.09343
559.852	237.91853
560.058	232.7034
560.264	221.71052
560.471	209.75342
560.677	250.58275
560.883	239.77657
561.089	237.79866
561.295	184.24268
561.502	211.13334
561.708	205.49323
561.914	231.82412
562.12	220.611
562.326	220.81091
562.532	230.14544
562.738	229.88563
562.944	187.72551
563.15	226.34803
563.356	188.02573
563.562	204.33307
563.768	214.17294
563.974	183.36189
564.18	212.5332
564.386	202.45271
564.592	192.48868
564.798	178.77736
565.004	258.80949
565.21	162.2548
565.416	239.71664
565.622	225.12876
565.828	221.05081
566.034	254.47677
566.239	210.3534
566.445	257.79126
566.651	253.05901
566.857	304.13426
567.063	246.36863
567.268	286.08866
567.474	293.46777
567.68	284.57272
567.886	321.03315
568.091	343.49678
568.297	311.52872
568.503	330.63407
568.708	342.64077
568.914	349.14982
569.12	381.49477
569.325	332.18745
569.531	353.5282
569.737	281.76004
569.942	295.80078
570.148	369.78224
570.353	434.35314
570.559	423.99136
570.765	379.34748
570.97	406.19737
571.176	469.42213
571.381	344.61155
571.587	291.69297
571.792	307.80183
571.998	333.5217
572.203	338.85809
572.408	440.40581
572.614	485.19807
572.819	447.05243
573.025	384.79492
573.23	399.44244
573.435	378.92994
573.641	384.87444
573.846	341.32684
574.051	391.47365
574.257	409.75303
574.462	439.35412
574.667	385.82863
574.873	398.25023
575.078	445.52483
575.283	416.56523
575.488	455.95864
575.694	498.27253
575.899	401.3896
576.104	418.33258
576.309	446.97308
576.514	475.17058
576.719	584.62527
576.925	667.65332
577.13	594.00591
577.335	525.65172
577.54	482.24564
577.745	399.38283
577.95	437.7666
578.155	406.81318
578.36	364.29227
578.565	401.11144
578.77	515.18196
578.975	556.625
579.18	460.00425
579.385	488.18983
579.59	583.8747
579.795	461.80874
580	375.37062
580.205	410.7263
580.41	571.11233
580.615	888.94427
580.82	914.03058
581.024	763.44164
581.229	731.71943
581.434	671.71154
581.639	539.61916
581.844	431.0584
582.049	386.66353
582.253	469.30318
582.458	409.29618
582.663	332.00822
582.868	327.16854
583.072	345.14901
583.277	430.99885
583.482	484.32624
583.686	514.84544
583.891	475.4877
584.096	500.92637
584.3	552.03828
584.505	466.48803
584.71	518.3094
584.914	519.65529
585.119	492.13218
585.323	461.88806
585.528	352.05554
585.733	373.18312
585.937	429.78804
586.142	337.00639
586.346	474.97237
586.551	436.17899
586.755	434.23406
586.959	560.44017
587.164	535.46519
587.368	432.58673
587.573	535.86083
587.777	754.50187
587.982	2758.19822
588.186	6234.64463
588.39	2839.91939
588.595	1748.63618
588.799	3517.40466
589.003	1492.01051
589.208	557.92972
589.412	462.02686
589.616	415.71131
589.82	425.28181
590.025	302.699
590.229	335.81169
590.433	316.94881
590.637	323.76236
590.842	415.61201
591.046	462.04669
591.25	388.79041
591.454	300.02763
591.658	348.71195
591.862	500.90657
592.067	773.71457
592.271	627.3789
592.475	510.49021
592.679	531.27109
592.883	464.08899
593.087	498.45078
593.291	420.06011
593.495	365.0482
593.699	343.93473
593.903	471.84057
594.107	586.81762
594.311	573.74029
594.515	525.55277
594.719	458.31864
594.923	427.22732
595.127	488.78419
595.33	441.69556
595.534	331.74932
595.738	477.84621
595.942	436.61559
596.146	348.23426
596.35	420.49694
596.553	389.88361
596.757	415.59215
596.961	552.09759
597.165	433.83712
597.369	325.99335
597.572	362.42227
597.776	332.70522
597.98	484.80178
598.183	567.75296
598.387	495.20251
598.591	389.24757
598.794	404.60811
598.998	419.72255
599.202	473.66419
599.405	520.46675
599.609	482.14656
599.812	528.16473
600.016	517.00303
600.22	558.42392
600.423	559.92624
600.627	499.42124
600.83	384.97384
601.034	517.29994
601.237	574.41207
601.441	358.34366
601.644	415.53257
601.847	521.2782
602.051	455.24465
602.254	434.75007
602.458	491.95389
602.661	576.94098
602.864	453.81662
603.068	405.89939
603.271	365.90356
603.475	371.9501
603.678	385.84851
603.881	396.8394
604.084	328.56276
604.288	339.65448
604.491	440.50502
604.694	465.6355
604.897	347.27887
605.101	382.11109
605.304	422.83983
605.507	387.08096
605.71	306.24715
605.913	415.45314
606.116	460.14306
606.32	444.87012
606.523	386.24608
606.726	370.61758
606.929	408.99823
607.132	423.21706
607.335	410.70643
607.538	344.33286
607.741	332.38659
607.944	296.47871
608.147	310.53227
608.35	354.3441
608.553	330.71373
608.756	344.43239
608.959	354.0655
609.162	461.27335
609.365	444.37412
609.568	414.04311
609.771	293.40795
609.973	417.61771
610.176	392.12951
610.379	329.27977
610.582	311.22979
610.785	375.8081
610.988	349.96584
611.19	317.02851
611.393	292.19152
611.596	285.55011
611.799	287.12584
612.001	375.72856
612.204	306.74546
612.407	297.39589
612.609	327.32788
612.812	364.74981
613.015	369.285
613.217	380.44103
613.42	302.39997
613.623	310.27319
613.825	367.4352
614.028	408.38246
614.23	300.18712
614.433	284.7323
614.636	317.20784
614.838	398.76686
615.041	429.17269
615.243	267.25343
615.446	240.35593
615.648	230.92484
615.85	284.41314
616.053	218.15191
616.255	307.90148
616.458	270.94562
616.66	269.6085
616.863	238.01843
617.065	268.53078
617.267	294.56451
617.47	278.64782
617.672	268.9499
617.874	264.1596
618.077	241.15504
618.279	259.52822
618.481	304.31366
618.683	184.76313
618.886	221.33069
619.088	335.31388
619.29	317.20784
619.492	243.81189
619.694	252.69957
619.897	279.90472
620.099	245.9292
620.301	181.13979
620.503	168.34425
620.705	233.54268
620.907	241.2749
621.109	201.47247
621.311	247.9465
621.513	258.13068
621.715	285.96899
621.917	295.10289
622.119	293.98624
622.321	250.28319
622.523	284.97166
622.725	221.81047
622.927	223.56961
623.129	235.70072
623.331	242.93296
623.533	189.62687
623.735	241.19499
623.937	276.43315
624.139	214.01297
624.341	248.22611
624.542	183.38191
624.744	180.81947
624.946	252.71954
625.148	210.01341
625.35	225.62847
625.551	200.49219
625.753	166.58166
625.955	199.53189
626.156	224.54909
626.358	241.49465
626.56	210.41339
626.762	261.28504
626.963	231.04475
627.165	202.27267
627.366	230.8449
627.568	246.66823
627.77	215.83258
627.971	252.77944
628.173	236.71974
628.374	185.90408
628.576	198.13139
628.777	271.88356
628.979	180.93959
629.18	156.66495
629.382	156.9054
629.583	225.60848
629.785	231.08471
629.986	164.79891
630.188	189.18657
630.389	190.02714
630.591	228.92632
630.792	148.8493
630.993	140.95124
631.195	157.6668
631.396	161.85413
631.597	157.00559
631.799	172.73024
632	229.66579
632.201	182.34095
632.402	214.23293
632.604	202.15264
632.805	164.25806
633.006	196.05053
633.207	215.91256
633.409	229.06623
633.61	174.05191
633.811	177.85636
634.012	209.83342
634.213	208.99344
634.414	183.9224
634.615	188.96641
634.816	224.18928
635.017	218.55178
635.219	214.83281
635.42	224.62904
635.621	186.20433
635.822	257.79126
636.023	197.19102
636.224	204.35308
636.425	199.83199
636.626	163.75726
636.826	169.94652
637.027	223.06987
637.228	170.5874
637.429	169.34568
637.63	178.93753
637.831	151.57501
638.032	181.42007
638.233	142.57514
638.433	157.70687
638.634	191.36801
638.835	172.83037
639.036	200.73226
639.237	122.29966
639.437	115.23683
639.638	160.07109
639.839	157.92728
640.039	126.83335
640.24	195.61032
640.441	136.7808
640.641	116.88231
640.842	171.26832
641.043	146.88502
641.243	127.95663
641.444	130.32339
641.645	196.01051
641.845	142.8959
642.046	154.92165
642.246	141.53265
642.447	94.4993
642.647	153.87963
642.848	204.13304
643.048	209.15343
643.249	158.94911
643.449	140.22948
643.65	126.55253
643.85	107.30904
644.05	165.78044
644.251	120.69463
644.451	153.47884
644.651	138.44504
644.852	145.84269
645.052	138.46509
645.252	138.10418
645.453	109.65751
645.653	114.21337
645.853	117.96586
646.054	143.51736
646.254	124.28575
646.454	86.56548
646.654	107.7105
646.854	137.50265
647.055	163.17632
647.255	105.82358
647.455	201.25241
647.655	152.61712
647.855	174.73274
648.055	142.0138
648.255	121.09589
648.455	157.72691
648.655	137.12168
648.856	156.72506
649.056	144.72014
649.256	162.69553
649.456	142.25438
649.656	143.01618
649.856	153.49888
650.055	139.4676
650.255	211.77329
650.455	194.60983
650.655	212.13325
650.855	233.14303
651.055	293.02907
651.255	318.76193
651.455	342.85975
651.655	260.08722
651.854	246.52842
652.054	178.65723
652.254	231.90406
652.454	310.97072
652.654	290.37675
652.853	470.39349
653.053	586.89663
653.253	1180.36464
653.452	3426.15807
653.652	12173.72105
653.852	30785.74349
654.051	61593.88834
654.251	63373.00152
654.451	63373.00152
654.65	63373.00152
654.85	63373.00152
655.049	63373.00152
655.249	63373.00152
655.449	63373.00152
655.648	63373.00152
655.848	63373.00152
656.047	63373.00152
656.247	63373.00152
656.446	63373.00152
656.645	63373.00152
656.845	63373.00152
657.044	63373.00152
657.244	63373.00152
657.443	63373.00152
657.643	63373.00152
657.842	62013.30523
658.041	10457.89601
658.241	3164.48922
658.44	2468.525
658.639	2029.5718
658.839	1817.73121
659.038	1561.20262
659.237	1391.49205
659.436	1240.59433
659.636	1181.41356
659.835	1072.605
660.034	1008.50686
660.233	930.47789
660.432	866.13219
660.631	849.55732
660.831	822.15056
661.03	761.39847
661.229	758.05841
661.428	684.88748
661.627	675.06018
661.826	665.56492
662.025	629.84449
662.224	578.65973
662.423	566.33006
662.622	512.84607
662.821	534.75302
663.02	555.93308
663.219	468.41108
663.418	525.29552
663.617	501.30264
663.816	467.67756
664.015	395.5676
664.214	423.59429
664.412	429.86744
664.611	444.25508
664.81	418.31272
665.009	456.41479
665.208	390.26125
665.406	352.91128
665.605	367.27607
665.804	337.90239
666.003	372.50695
666.201	327.54698
666.4	309.41621
666.599	341.30693
666.798	315.27507
666.996	328.00508
667.195	292.86954
667.394	297.83453
667.592	359.00026
667.791	304.23393
667.989	314.95625
668.188	297.35601
668.386	359.2987
668.585	288.30259
668.783	324.91771
668.982	317.80558
669.18	336.52852
669.379	273.46004
669.577	243.03284
669.776	254.71638
669.974	308.5592
670.173	284.29346
670.371	268.81019
670.57	256.31376
670.768	263.88014
670.966	276.81225
671.165	284.05409
671.363	262.08356
671.561	285.98893
671.76	304.49306
671.958	326.23238
672.156	276.05404
672.354	243.85184
672.553	253.43842
672.751	194.62984
672.949	228.44666
673.147	271.34475
673.345	210.63338
673.543	270.18726
673.742	180.67933
673.94	206.49334
674.138	227.42735
674.336	225.06879
674.534	197.131
674.732	260.60628
674.93	232.64345
675.128	193.94949
675.326	190.58751
675.524	194.10958
675.722	237.5589
675.92	182.14076
676.118	182.88145
676.316	203.45292
676.514	207.3734
676.712	167.2827
676.91	197.87129
677.108	197.91131
677.305	234.00228
677.503	206.55334
677.701	203.01283
677.899	161.8942
678.097	205.39322
678.295	172.40983
678.492	164.71879
678.69	219.8513
678.888	188.78629
679.085	234.88148
679.283	185.6839
679.481	147.66674
679.679	179.83848
679.876	180.21887
680.074	192.20852
680.271	168.70477
680.469	169.48588
680.667	200.59222
680.864	194.36971
681.062	206.19331
681.259	202.33268
681.457	143.49731
681.654	198.47152
681.852	152.11611
682.049	164.19796
682.247	148.42839
682.444	166.32126
682.642	196.93091
682.839	129.80192
683.037	152.23635
683.234	204.07303
683.431	165.52004
683.629	121.4169
683.826	145.22128
684.023	184.54294
684.221	219.0516
684.418	211.97326
684.615	224.12932
684.813	212.71317
685.01	238.45798
685.207	157.52654
685.404	115.95925
685.601	215.85257
685.799	211.03335
685.996	172.63011
686.193	136.54018
686.39	132.46935
686.587	170.64748
686.784	173.05065
686.981	189.24661
687.179	162.0144
687.376	114.41405
687.573	149.33033
687.77	171.66885
687.967	143.69778
688.164	155.92356
688.361	135.19667
688.558	147.787
688.755	143.33693
688.952	196.85088
689.148	152.71732
689.345	136.03888
689.542	146.12332
689.739	150.75332
689.936	133.67261
690.133	172.22959
690.33	131.62703
690.526	156.64492
690.723	227.06758
690.92	173.85166
691.117	131.44653
691.314	130.92508
691.51	106.54625
691.707	149.31028
691.904	136.98132
692.1	199.11175
692.297	124.50642
692.494	133.79293
692.69	224.66902
692.887	171.12813
693.084	169.54596
693.28	124.74714
693.477	142.71547
693.673	137.98388
693.87	169.40577
694.066	117.8254
694.263	108.29261
694.459	123.44318
694.656	141.11163
694.852	136.39982
695.049	146.74471
695.245	145.74247
695.442	143.45722
695.638	98.09386
695.834	123.04195
696.031	145.26138
696.227	162.75563
696.423	167.20258
696.62	163.89748
696.816	188.32595
697.012	128.47814
697.209	143.09637
697.405	180.87953
697.601	165.54007
697.797	136.56023
697.994	121.87835
698.19	98.19426
698.386	166.2812
698.582	156.08386
698.778	112.1262
698.974	97.87298
699.17	102.31034
699.367	128.89935
699.563	175.85408
699.759	95.92513
699.955	117.02277
700.151	126.21152
700.347	129.72169
700.543	147.52643
700.739	201.35244
700.935	121.67772
701.131	114.39398
701.327	111.12269
701.523	172.02933
701.718	117.68495
701.914	132.64984
702.11	165.41988
702.306	163.19635
702.502	135.47741
702.698	90.44229
702.894	99.17816
703.089	108.57363
703.285	108.03167
703.481	122.39997
703.677	139.60795
703.872	106.0444
704.068	117.72508
704.264	84.01412
704.459	62.60933
704.655	82.2461
704.851	109.69765
705.046	69.20341
705.242	80.51815
705.438	55.99353
705.633	103.59524
705.829	85.46059
706.024	134.47476
706.22	154.58099
706.415	135.75815
706.611	133.61245
706.806	161.21305
707.002	117.9458
707.197	125.81033
707.393	133.97342
707.588	105.68306
707.784	134.53492
707.979	103.73577
708.174	89.89998
708.37	108.55355
708.565	112.00578
708.76	106.54625
708.956	115.15656
709.151	107.73058
709.346	92.79222
709.542	81.20131
709.737	92.16961
709.932	152.11611
710.127	139.4275
710.322	83.27076
710.518	97.5517
710.713	91.62732
710.908	65.36376
711.103	124.48636
711.298	132.75011
711.493	65.18282
711.688	76.94136
711.883	92.10935
712.078	141.33217
712.273	156.08386
712.468	72.64054
712.663	118.24678
712.858	131.46658
713.053	123.4833
713.248	135.25683
713.443	106.40573
713.638	72.45965
713.833	80.19666
714.028	110.25965
714.223	163.33658
714.418	193.98951
714.613	88.57426
714.807	171.88915
715.002	94.03739
715.197	90.54272
715.392	51.60891
715.587	66.56999
715.781	108.09189
715.976	80.71908
716.171	139.08665
716.365	89.09652
716.56	120.55418
716.755	61.26217
716.949	96.02554
717.144	111.96564
717.339	89.29739
717.533	108.71413
717.728	128.67872
717.922	59.69375
718.117	63.79558
718.312	130.16294
718.506	109.83815
718.701	168.4444
718.895	187.1851
719.089	132.16852
719.284	125.66991
719.478	91.14528
719.673	43.68259
719.867	122.92158
720.062	98.83681
720.256	98.69626
720.45	76.61982
720.645	55.97342
720.839	104.94029
721.033	122.25953
721.228	72.39935
721.422	110.78149
721.616	83.4114
721.81	87.91138
722.005	113.87221
722.199	142.91595
722.393	87.99173
722.587	68.21842
722.781	121.0357
722.975	132.9306
723.169	110.15929
723.364	101.56749
723.558	71.19338
723.752	97.53162
723.946	152.21631
724.14	96.70831
724.334	110.40015
724.528	110.5005
724.722	80.43778
724.916	143.73787
725.11	115.69837
725.304	111.34347
725.498	141.91356
725.692	95.94521
725.885	129.05981
726.079	155.92356
726.273	98.79665
726.467	68.70087
726.661	91.1252
726.855	122.5404
727.048	165.78044
727.242	79.63405
727.436	119.39047
727.63	67.37412
727.823	147.60661
728.017	60.5383
728.211	84.95835
728.405	143.97843
728.598	87.99173
728.792	86.74628
728.986	152.49688
729.179	104.47857
729.373	92.79222
729.566	117.38396
729.76	107.59007
729.953	109.25608
730.147	146.34382
730.34	103.97668
730.534	192.48868
730.727	123.56355
730.921	135.71804
731.114	139.84854
731.308	99.47935
731.501	123.92465
731.695	94.76037
731.888	106.8875
732.081	92.33028
732.275	109.5973
732.468	130.58412
732.661	121.91847
732.855	85.03871
733.048	82.76848
733.241	74.87142
733.434	138.26459
733.628	134.79561
733.821	155.88349
734.014	132.71
734.207	142.77561
734.4	93.7964
734.594	111.90543
734.787	118.7484
734.98	115.59804
735.173	131.34625
735.366	58.02469
735.559	138.32474
735.752	62.36806
735.945	59.37202
736.138	83.73285
736.331	99.7203
736.524	134.11379
736.717	103.49486
736.91	86.76637
737.103	105.52246
737.296	95.46325
737.489	120.8752
737.682	45.63421
737.875	65.58491
738.067	116.34051
738.26	116.13985
738.453	121.45703
738.646	91.32605
738.839	100.50336
739.031	126.33188
739.224	88.57426
739.417	125.68997
739.61	154.8415
739.802	75.87627
739.995	58.4671
740.188	148.22796
740.38	85.58112
740.573	100.84469
740.765	83.51185
740.958	39.45694
741.151	119.69144
741.343	67.2133
741.536	70.46977
741.728	67.47463
741.921	92.63155
742.113	62.16699
742.306	65.30345
742.498	68.98229
742.691	102.59142
742.883	74.10772
743.076	70.28887
743.268	42.87776
743.46	126.83335
743.653	54.66615
743.845	117.66488
744.037	89.79954
744.23	79.75461
744.422	86.04317
744.614	69.52503
744.807	75.25327
744.999	93.71606
745.191	95.32268
745.383	108.27254
745.575	70.30897
745.768	93.7964
745.96	96.16611
746.152	109.07543
746.344	67.75607
746.536	116.09971
746.728	99.138
746.92	119.31021
747.112	76.07723
747.304	96.48741
747.496	88.49391
747.688	66.5901
747.88	41.52961
748.072	120.4338
748.264	73.40429
748.456	78.95085
748.648	69.44463
748.84	77.60451
749.032	68.15812
749.224	113.73173
749.416	117.50435
749.608	141.11163
749.799	94.05748
749.991	102.59142
750.183	111.48396
750.375	49.23528
750.567	80.45787
750.758	40.32225
750.95	89.89998
751.142	80.19666
751.333	75.45424
751.525	85.34005
751.717	97.10992
751.908	158.18775
752.1	64.96167
752.292	76.94136
752.483	93.83656
752.675	91.40639
752.866	98.19426
753.058	140.32973
753.249	119.85195
753.441	111.06248
753.632	47.32416
753.824	69.48483
754.015	65.18282
754.207	123.42312
754.398	121.87835
754.589	68.47975
754.781	74.93171
754.972	83.08994
755.164	93.47506
755.355	78.08679
755.546	121.17615
755.738	65.34366
755.929	96.70831
756.12	139.227
756.311	143.13646
756.503	93.37465
756.694	112.64801
756.885	94.19806
757.076	167.72335
757.267	160.55192
757.458	149.55079
757.65	133.29158
757.841	95.14194
758.032	155.00181
758.223	149.63096
758.414	141.27202
758.605	131.22592
758.796	83.33103
758.987	154.64111
759.178	80.51815
759.369	58.56765
759.56	92.61146
759.751	100.90492
759.942	101.36671
760.133	70.42957
760.324	94.19806
760.514	96.0657
760.705	144.49963
760.896	71.19338
761.087	113.1096
761.278	72.23856
761.468	53.86165
761.659	114.97595
761.85	121.97866
762.041	40.76495
762.231	115.29703
762.422	74.2685
762.613	118.86879
762.803	82.2461
762.994	156.66495
763.185	49.81865
763.375	99.3388
763.566	84.57664
763.757	78.18726
763.947	73.40429
764.138	108.67399
764.328	121.2564
764.519	142.29447
764.709	95.34276
764.9	98.0537
765.09	87.34892
765.281	81.56297
765.471	70.65068
765.661	72.01747
765.852	72.86163
766.042	84.93826
766.232	34.36516
766.423	55.87286
766.613	81.16112
766.803	58.34645
766.994	107.04809
767.184	76.01694
767.374	149.19003
767.564	130.40362
767.755	104.39826
767.945	45.63421
768.135	83.71276
768.325	133.47207
768.515	104.77969
768.706	94.53946
768.896	105.68306
769.086	104.83992
769.276	110.42022
769.466	84.07439
769.656	71.61548
769.846	86.94716
770.036	115.73851
770.226	100.84469
770.416	73.10281
770.606	106.5061
770.796	148.92947
770.986	100.20218
771.176	76.41886
771.366	75.07239
771.555	109.53708
771.745	56.17453
771.935	117.54449
772.125	57.90403
772.315	77.54422
772.504	119.91214
772.694	62.99135
772.884	116.15991
773.074	42.77715
773.263	83.57212
773.453	82.2461
773.643	138.24454
773.832	118.04612
774.022	127.85634
774.212	77.28298
774.401	54.04266
774.591	22.30603
774.781	36.07595
774.97	98.37498
775.16	61.16164
775.349	63.05167
775.539	67.41432
775.728	45.65433
775.918	92.6918
776.107	158.26789
776.297	209.23343
776.486	375.62913
776.675	456.98992
776.865	344.1537
777.054	140.8911
777.243	116.13985
777.433	112.32689
777.622	113.55111
777.811	94.3788
778.001	114.7552
778.19	57.70293
778.379	56.59686
778.568	101.08562
778.758	63.11199
778.947	74.71064
779.136	103.07326
779.325	113.4909
779.514	53.72086
779.703	130.94513
779.892	43.26005
780.082	68.94209
780.271	42.31436
780.46	83.49176
780.649	102.59142
780.838	75.77578
781.027	60.77959
781.216	44.34656
781.405	50.28131
781.594	102.59142
781.783	117.04284
781.971	135.89851
782.16	67.45453
782.349	151.43472
782.538	41.93205
782.727	111.24312
782.916	48.22944
783.105	118.44743
783.293	79.81489
783.482	124.44624
783.671	112.18641
783.86	86.1838
784.048	50.7842
784.237	8.7103
784.426	67.17309
784.614	61.20185
784.803	81.9849
784.992	13.60557
785.18	63.27283
785.369	82.10546
785.557	74.99201
785.746	87.95156
785.935	84.81772
786.123	77.56432
786.312	26.51426
786.5	81.72371
786.689	77.2227
786.877	65.10241
787.065	92.87255
787.254	-8.13794
787.442	36.27721
787.631	72.51995
787.819	96.32676
788.007	119.20989
788.196	102.06942
788.384	116.70171
788.572	143.95838
788.761	40.64422
788.949	55.18906
789.137	73.72586
789.325	62.99135
789.513	46.37861
789.702	79.63405
789.89	94.9612
790.078	45.37266
790.266	45.19159
790.454	55.47063
790.642	47.44486
790.83	114.1331
791.018	65.20293
791.207	70.02756
791.395	99.3388
791.583	51.83017
791.771	119.22996
791.959	72.84153
792.146	60.69916
792.334	37.06211
792.522	50.88477
792.71	76.78059
792.898	58.02469
793.086	103.61531
793.274	53.05712
793.462	133.77288
793.65	129.9022
793.837	50.56293
794.025	114.11303
794.213	35.59291
794.401	111.62445
794.588	65.56481
794.776	34.44567
794.964	23.41352
795.151	91.96876
795.339	87.67033
795.527	49.63761
795.714	24.40016
795.902	52.23245
796.089	65.48439
796.277	12.25594
796.465	119.37041
796.652	93.63573
796.84	60.43776
797.027	68.68077
797.215	66.50968
797.402	108.79442
797.59	114.67493
797.777	46.74074
797.964	32.59388
798.152	41.65034
798.339	114.51439
798.526	18.17769
798.714	38.87335
798.901	70.04766
799.088	106.40573
799.276	68.49985
799.463	77.74517
799.65	44.64836
799.837	70.10796
800.025	37.10237
800.212	78.68963
800.399	72.92192
800.586	43.13933
800.773	22.60808
800.96	36.7401
801.148	92.87255
801.335	90.66324
801.522	108.53348
801.709	42.53569
801.896	71.79637
802.083	47.38451
802.27	38.45074
802.457	51.8704
802.644	39.93991
802.831	61.40292
803.018	31.04391
803.204	54.7466
803.391	70.97228
803.578	61.6241
803.765	57.54205
803.952	106.12469
804.139	43.92403
804.326	84.59673
804.512	65.46428
804.699	96.26652
804.886	42.918
805.073	40.78508
805.259	45.53361
805.446	168.70477
805.633	69.66574
805.819	125.42919
806.006	108.93493
806.192	83.02967
806.379	28.8899
806.566	42.57594
806.752	86.30433
806.939	52.49393
807.125	21.33945
807.312	72.39935
807.498	79.07142
807.685	100.90492
807.871	65.74574
808.058	105.24142
808.244	78.91066
808.43	91.1252
808.617	85.0588
808.803	103.9566
808.99	36.35771
809.176	57.54205
809.362	54.40469
809.549	68.0375
809.735	63.45379
809.921	29.75555
810.107	77.92603
810.293	52.31291
810.48	84.73736
810.666	75.29346
810.852	71.37428
811.038	55.16895
811.224	75.25327
811.41	82.66802
811.597	102.14973
811.783	39.11484
811.969	48.08862
812.155	28.02423
812.341	53.62029
812.527	56.71753
812.713	67.05247
812.899	56.83819
813.085	36.07595
813.271	74.10772
813.456	95.24235
813.642	40.04052
813.828	45.09099
814.014	107.77072
814.2	60.61873
814.386	57.01919
814.572	10.90623
814.757	73.74595
814.943	130.38356
815.129	82.42692
815.315	60.07581
815.5	54.02255
815.686	96.42717
815.872	7.76338
816.057	32.57375
816.243	119.00925
816.429	45.75492
816.614	58.70842
816.8	59.09049
816.985	50.925
817.171	53.27837
817.356	77.2227
817.542	70.48987
817.727	89.49825
817.913	20.3527
818.098	51.95085
818.284	34.64694
818.469	35.7338
818.655	41.14728
818.84	95.24235
819.025	24.68205
819.211	103.71569
819.396	94.78046
819.581	20.27215
819.767	37.90737
819.952	72.39935
820.137	78.46859
820.322	78.08679
820.508	153.058
820.693	82.9493
820.878	57.2404
821.063	83.53194
821.248	100.96516
821.433	34.54631
821.618	75.43414
821.804	40.10089
821.989	41.04667
822.174	78.95085
822.359	113.73173
822.544	16.12336
822.729	79.99573
822.914	17.65405
823.099	31.02378
823.284	33.84184
823.469	48.06851
823.653	72.64054
823.838	57.98447
824.023	70.16826
824.208	36.90111
824.393	88.43365
824.578	70.67078
824.762	27.8833
824.947	39.15509
825.132	66.28855
825.317	52.8761
825.501	61.84528
825.686	50.72385
825.871	49.57726
826.056	63.19241
826.24	83.81321
826.425	86.96725
826.609	30.1783
826.794	19.68814
826.979	62.12678
827.163	58.6682
827.348	38.71236
827.532	20.79574
827.717	60.35733
827.901	42.99848
828.086	67.9772
828.27	36.37784
828.455	88.39348
828.639	66.08751
828.823	81.36205
829.008	34.6872
829.192	48.71225
829.376	73.2033
829.561	33.41915
829.745	25.26595
829.929	12.1955
830.114	69.0225
830.298	127.07406
830.482	54.24379
830.666	82.42692
830.85	29.07109
831.035	49.85888
831.219	13.92786
831.403	30.80235
831.587	15.59968
831.771	110.15929
831.955	53.84153
832.139	41.69058
832.323	73.54497
832.507	21.66165
832.691	32.25168
832.875	19.00341
833.059	18.64091
833.243	12.27608
833.427	25.97065
833.611	53.11746
833.795	19.97007
833.979	76.7404
834.163	17.49293
834.346	88.75504
834.53	49.33586
834.714	74.61016
834.898	48.4105
835.082	60.19646
835.265	77.66479
835.449	28.68859
835.633	12.09478
835.816	55.53096
836	18.01658
836.184	63.07178
836.367	83.21049
836.551	78.56906
836.735	74.85133
836.918	24.82299
837.102	48.10874
837.285	40.14114
837.469	45.63421
837.652	96.26652
837.836	36.5791
838.019	46.09694
838.203	42.6363
838.386	36.98161
838.569	15.39826
838.753	124.12526
838.936	23.73569
839.12	41.36863
839.303	39.77892
839.486	72.05767
839.669	17.99644
839.853	57.52194
840.036	43.19969
840.219	25.4673
840.402	5.2448
840.586	43.42102
840.769	54.92761
840.952	22.04425
841.135	69.54513
841.318	35.91494
841.501	1.07349
841.684	10.06012
841.868	75.37385
842.051	55.06839
842.234	69.20341
842.417	32.79516
842.6	51.66925
842.783	80.59853
842.966	58.12524
843.149	163.39668
843.331	44.52764
843.514	169.42579
843.697	213.31309
843.88	210.2934
844.063	155.24227
844.246	98.69626
844.429	62.93103
844.611	50.60316
844.794	62.28763
844.977	63.8559
845.16	69.1029
845.342	63.63474
845.525	52.47382
845.708	27.52091
845.89	52.39336
846.073	12.43723
846.256	46.19754
846.438	53.23814
846.621	105.04067
846.803	62.62944
846.986	-6.64616
847.168	42.27411
847.351	74.20821
847.533	79.29245
847.716	77.2026
847.898	87.46945
848.081	4.05594
848.263	37.6055
848.446	19.52703
848.628	83.75294
848.81	15.61982
848.993	26.77599
849.175	10.42274
849.357	40.0204
849.539	54.44491
849.722	28.18529
849.904	11.34943
850.086	60.27689
850.268	103.796
850.451	115.3171
850.633	81.40223
850.815	11.77247
850.997	110.21951
851.179	29.2724
851.361	51.16638
851.543	45.03063
851.725	60.13614
851.907	31.80884
852.089	69.74614
852.271	39.37645
852.453	100.82461
852.635	76.55954
852.817	40.88569
852.999	40.82532
853.181	35.00923
853.363	51.3273
853.545	37.02186
853.727	51.95085
853.908	25.93038
854.09	62.85061
854.272	110.07901
854.454	46.35849
854.636	89.65894
854.817	36.78036
854.999	78.89057
855.181	50.90489
855.362	41.85156
855.544	34.44567
855.726	71.49488
855.907	39.79904
856.089	18.68118
856.27	53.29848
856.452	48.81283
856.634	91.88842
856.815	54.32424
856.997	85.60121
857.178	38.7526
857.36	15.47882
857.541	10.44289
857.722	37.16274
857.904	65.28335
858.085	45.19159
858.267	63.89611
858.448	59.99538
858.629	70.83158
858.811	14.33072
858.992	66.14782
859.173	52.27268
859.354	34.9086
859.536	99.138
859.717	8.69016
859.898	28.447
860.079	49.31575
860.26	64.13737
860.441	62.32784
860.623	58.42689
860.804	52.57439
860.985	65.30345
861.166	42.15339
861.347	18.27839
861.528	12.17536
861.709	83.19039
861.89	42.19363
862.071	79.49339
862.252	52.07154
862.433	31.96987
862.614	133.81299
862.794	25.97065
862.975	64.94157
863.156	124.52648
863.337	26.57466
863.518	87.26857
863.699	48.55132
863.879	77.74517
864.06	49.93934
864.241	58.6682
864.422	52.79564
864.602	52.05142
864.783	86.78645
864.964	30.21856
865.144	47.08274
865.325	43.5015
865.506	59.51278
865.686	54.18345
865.867	52.55428
866.047	57.42139
866.228	62.77018
866.408	29.63477
866.589	58.50732
866.769	90.20126
866.95	34.54631
867.13	37.80675
867.31	45.25194
867.491	48.91342
867.671	-0.51862
867.852	50.08016
868.032	73.50478
868.212	57.36106
868.393	89.35765
868.573	31.46663
868.753	29.57437
868.933	42.45521
869.113	58.98995
869.294	38.20924
869.474	73.56507
869.654	36.51872
869.834	36.53885
870.014	48.7726
870.194	0.52936
870.374	52.57439
870.555	28.62819
870.735	41.97229
870.915	54.103
871.095	36.45834
871.275	69.80645
871.455	83.69267
871.634	26.37333
871.814	75.97675
871.994	36.13632
872.174	52.79564
872.354	94.07756
872.534	20.21174
872.714	30.50039
872.894	18.943
873.073	64.70031
873.253	64.47916
873.433	16.02265
873.613	1.1138
873.792	57.54205
873.972	40.3625
874.152	24.38003
874.331	66.26844
874.511	79.81489
874.691	29.2724
874.87	13.08184
875.05	46.96204
875.229	37.74637
875.409	58.22579
875.588	26.81626
875.768	59.71386
875.947	109.85823
876.127	84.83781
876.306	32.25168
876.486	39.6783
876.665	57.22029
876.844	65.16272
877.024	105.64291
877.203	68.05761
877.382	19.62772
877.562	25.93038
877.741	22.54767
877.92	69.76625
878.1	67.15299
878.279	15.49897
878.458	23.09135
878.637	45.79516
878.816	80.01582
878.996	48.79272
879.175	63.57442
879.354	21.9637
879.533	70.77128
879.712	46.62003
879.891	40.282
880.07	86.06326
880.249	66.18803
880.428	37.80675
880.607	71.99737
880.786	19.18466
880.965	65.72564
881.144	55.34996
881.323	16.20392
881.502	47.40463
881.68	57.22029
881.859	29.29253
882.038	64.01674
882.217	64.03685
882.396	16.70745
882.574	38.53124
882.753	44.06488
882.932	38.95385
883.111	60.33722
883.289	48.51108
883.468	51.28707
883.647	52.23245
883.825	57.20018
884.004	68.31893
884.182	37.82687
884.361	50.2612
884.539	49.09447
884.718	65.5447
884.896	18.45965
885.075	39.19533
885.253	74.38909
885.432	45.77504
885.61	-3.683
885.789	32.39259
885.967	39.57769
886.145	71.49488
886.324	36.35771
886.502	32.09065
886.68	74.50967
886.859	29.83608
887.037	66.91175
887.215	32.05039
887.393	90.30169
887.572	24.56124
887.75	74.36899
887.928	76.45906
888.106	57.42139
888.284	99.68014
888.462	53.11746
888.64	49.57726
888.819	52.55428
888.997	60.92035
889.175	16.96928
889.353	23.85651
889.531	49.17493
889.709	51.54856
889.887	28.72885
890.065	77.84565
890.242	66.32875
890.42	90.86409
890.598	37.66587
890.776	84.43601
890.954	34.30478
891.132	33.94248
891.309	21.05753
891.487	77.1825
891.665	28.18529
891.843	57.30073
892.02	23.83637
892.198	52.41348
892.376	43.54175
892.553	87.79085
892.731	91.54698
892.909	66.40917
893.086	76.37867
893.264	44.60812
893.441	37.58537
893.619	17.73462
893.797	50.10027
893.974	66.42927
894.151	51.3273
894.329	24.33976
894.506	1.15411
894.684	38.53124
894.861	49.73819
895.039	36.05582
895.216	30.01725
895.393	69.0627
895.571	6.81642
895.748	39.63806
895.925	103.21379
896.102	56.8583
896.28	19.40619
896.457	17.89574
896.634	35.77405
896.811	-9.73062
896.988	22.32617
897.166	54.00244
897.343	18.33881
897.52	75.83607
897.697	20.03049
897.874	86.96725
898.051	52.17211
898.228	42.89788
898.405	17.37209
898.582	1.59746
898.759	24.82299
898.936	61.76485
899.113	69.70594
899.29	71.79637
899.467	77.82555
899.643	104.31796
899.82	70.22857
899.997	93.7964
900.174	-19.18786
900.351	69.86675
900.527	51.72959
900.704	52.37325
900.881	94.03739
901.058	17.15054
901.234	56.83819
901.411	65.28335
901.588	48.37026
901.764	66.16792
901.941	62.77018
902.117	51.42788
902.294	38.39037
902.471	85.31996
902.647	18.35895
902.824	34.94885
903	53.86165
903.176	54.16334
903.353	76.01694
903.529	22.04425
903.706	50.6635
903.882	30.27895
904.058	18.19783
904.235	6.19181
904.411	6.15151
904.587	60.88013
904.764	47.08274
904.94	22.97053
905.116	27.70211
905.292	57.90403
905.469	67.01227
905.645	46.19754
905.821	77.6447
905.997	10.86594
906.173	18.70132
906.349	40.88569
906.525	48.47085
906.702	38.12875
906.878	29.15161
907.054	39.49719
907.23	56.25497
907.406	29.29253
907.582	88.514
907.757	48.61167
907.933	34.38529
908.109	77.50403
908.285	41.30826
908.461	62.32784
908.637	21.01725
908.813	30.23869
908.988	53.4795
909.164	70.36927
909.34	52.27268
909.516	31.1043
909.691	24.8834
909.867	68.33904
910.043	48.22944
910.219	64.09716
910.394	75.97675
910.57	65.88647
910.745	85.52086
910.921	71.27378
911.097	6.47389
911.272	4.90225
911.448	77.70498
911.623	20.99712
911.799	8.34766
911.974	6.01047
912.149	31.70819
912.325	52.81576
912.5	40.94606
912.676	26.69546
912.851	20.67491
913.026	76.41886
913.202	10.98681
913.377	30.25882
913.552	9.57661
913.727	117.52442
913.903	48.20933
914.078	40.00028
914.253	54.12311
914.428	41.52961
914.603	-16.82827
914.779	27.52091
914.954	18.47979
915.129	66.79113
915.304	49.19505
915.479	34.60669
915.654	39.39657
915.829	73.86654
916.004	1.55716
916.179	67.65556
916.354	22.80944
916.529	76.05713
916.704	42.47533
916.879	64.68021
917.053	69.86675
917.228	48.20933
917.403	45.25194
917.578	87.7105
917.753	31.82897
917.927	26.69546
918.102	27.92357
918.277	27.13839
918.452	42.51557
918.626	27.15852
918.801	61.64421
918.976	43.94415
919.15	22.97053
919.325	60.67905
919.499	57.96436
919.674	54.70637
919.849	30.33935
920.023	60.77959
920.198	52.79564
920.372	30.35948
920.547	55.81253
920.721	12.90054
920.895	70.69088
921.07	36.92124
921.244	60.45787
921.419	74.67045
921.593	31.56728
921.767	58.30623
921.942	53.45939
922.116	-8.17826
922.29	28.447
922.464	36.45834
922.639	0.89212
922.813	9.55646
922.987	70.93208
923.161	17.83532
923.335	38.02812
923.509	59.15082
923.683	47.30404
923.858	43.15945
924.032	80.21676
924.206	67.13288
924.38	-8.1581
924.554	40.60397
924.728	28.36648
924.902	106.08455
925.075	42.87776
925.249	28.52753
925.423	66.6303
925.597	61.94582
925.771	24.70219
925.945	40.22163
926.119	109.89837
926.292	62.58923
926.466	41.04667
926.64	63.55432
926.814	53.72086
926.987	2.18188
927.161	18.29853
927.335	16.18378
927.508	52.29279
927.682	-27.53887
927.856	31.42638
928.029	69.62554
928.203	70.67078
928.376	64.29821
928.55	22.82958
928.723	19.24508
928.897	57.22029
929.07	40.32225
929.244	68.41944
929.417	-3.01784
929.59	43.90391
929.764	22.38658
929.937	52.11177
930.111	98.89705
930.284	15.29755
930.457	4.07609
930.63	19.9298
930.804	26.19212
930.977	37.847
931.15	50.86466
931.323	89.39782
931.497	31.66793
931.67	42.97836
931.843	59.97527
932.016	-3.78378
932.189	43.13933
932.362	52.0112
932.535	84.31547
932.708	32.03026
932.881	26.51426
933.054	60.0557
933.227	73.10281
933.4	-3.5419
933.573	40.08077
933.746	22.40671
933.919	75.47433
934.092	48.08862
934.264	38.95385
934.437	24.50084
934.61	13.26313
934.783	22.06439
934.956	14.57243
935.128	57.70293
935.301	94.21814
935.474	32.39259
935.646	-7.33156
935.819	16.78801
935.992	56.77786
936.164	15.51911
936.337	38.0885
936.51	18.52007
936.682	39.65818
936.855	3.65293
937.027	97.5517
937.2	46.17742
937.372	28.72885
937.545	31.00365
937.717	61.08121
937.889	16.54632
938.062	63.59453
938.234	54.5857
938.406	31.18482
938.579	37.86712
938.751	81.28168
938.923	65.5246
939.096	84.39583
939.268	49.97958
939.44	50.82443
939.612	47.34428
939.784	60.71927
939.957	40.22163
940.129	58.98995
940.301	40.14114
940.473	40.3625
940.645	69.92705
940.817	63.89611
940.989	28.48727
941.161	28.70872
941.333	56.95885
941.505	33.56005
941.677	35.53253
941.849	20.37284
942.021	29.83608
942.193	23.4538
942.365	4.25745
942.537	51.64914
942.708	68.56016
942.88	52.81576
943.052	0.79135
943.224	16.36505
943.395	35.06961
943.567	23.05108
943.739	54.103
943.911	9.85866
944.082	18.25825
944.254	90.54272
944.425	-15.92079
944.597	22.1248
944.769	47.28392
944.94	47.62592
945.112	100.84469
945.283	86.28424
945.455	14.33072
945.626	48.18921
945.798	35.89481
945.969	56.2952
946.14	47.9478
946.312	69.40443
946.483	28.93017
946.655	31.46663
946.826	57.11974
946.997	52.51405
947.168	-12.97675
947.34	26.03105
947.511	77.52413
947.682	30.80235
947.853	20.41312
948.025	69.30392
948.196	15.6601
948.367	33.64056
948.538	21.66165
948.709	56.6773
948.88	25.5881
949.051	58.90951
949.222	13.32356
949.393	56.35553
949.564	38.37024
949.735	20.55408
949.906	19.5673
950.077	26.97733
950.248	59.31169
950.419	19.64786
950.59	8.08574
950.761	5.84928
950.931	61.74475
951.102	77.6447
951.273	40.84544
951.444	59.87473
951.614	62.85061
951.785	30.27895
951.956	27.19879
952.126	73.36409
952.297	120.19304
952.468	24.11827
952.638	-4.2877
952.809	30.62117
952.98	40.90581
953.15	43.52162
953.321	13.58542
953.491	7.64249
953.662	62.24742
953.832	25.24582
954.002	20.47353
954.173	-26.22755
954.343	48.08862
954.514	-4.95288
954.684	3.97534
954.854	44.588
955.025	38.02812
955.195	33.72107
955.365	37.686
955.535	16.10321
955.706	66.00709
955.876	54.84716
956.046	69.18331
956.216	66.85144
956.386	52.09165
956.557	58.94973
956.727	6.61493
956.897	52.09165
957.067	15.59968
957.237	39.37645
957.407	58.00458
957.577	53.45939
957.747	32.4731
957.917	15.15655
958.087	6.25226
958.257	46.49932
958.427	31.44651
958.596	12.84011
958.766	58.70842
958.936	-23.78664
959.106	66.24834
959.276	26.71559
959.445	8.34766
959.615	75.95665
959.785	56.33542
959.955	101.52733
960.124	43.17957
960.294	52.97666
960.464	25.99078
960.633	1.59746
960.803	12.71925
960.972	42.31436
961.142	-2.37286
961.311	29.9166
961.481	31.90949
961.65	64.45905
961.82	39.25571
961.989	118.12639
962.159	37.72625
962.328	103.2941
962.498	64.11727
962.667	-0.57909
962.836	19.76869
963.006	64.49926
963.175	31.94974
963.344	72.25866
963.513	17.95616
963.683	-14.00511
963.852	14.33072
964.021	12.23579
964.19	19.08397
964.359	38.18912
964.528	38.47086
964.698	17.15054
964.867	35.79418
965.036	44.72884
965.205	81.08075
965.374	40.20151
965.543	36.71998
965.712	33.49966
965.881	15.76081
966.05	29.19188
966.219	42.31436
966.387	56.37564
966.556	50.76408
966.725	30.92313
966.894	63.29294
967.063	43.42102
967.232	51.34742
967.4	20.25201
967.569	23.41352
967.738	88.57426
967.906	10.1407
968.075	60.88013
968.244	-4.36832
968.412	19.28536
968.581	52.69507
968.75	22.1248
968.918	17.83532
969.087	37.9275
969.255	39.7588
969.424	42.3546
969.592	75.0121
969.761	42.69666
969.929	44.10512
970.098	57.68282
970.266	-14.71087
970.434	18.66104
970.603	38.18912
970.771	55.99353
970.939	22.56781
971.108	84.39583
971.276	10.82565
971.444	48.6519
971.612	-34.03595
971.781	30.07765
971.949	147.40617
972.117	45.59397
972.285	77.60451
972.453	-15.47715
972.621	9.73778
972.789	38.95385
972.957	75.19298
973.125	7.44101
973.293	25.50757
973.461	49.77842
973.629	80.87983
973.797	13.807
973.965	39.39657
974.133	31.1043
974.301	27.9437
974.469	5.0836
974.637	38.85323
974.805	87.91138
974.972	42.89788
975.14	79.87517
975.308	27.29945
975.476	25.82971
975.643	66.5901
975.811	16.66717
975.979	94.8407
976.146	48.16909
976.314	58.6682
976.482	46.66026
976.649	23.31284
976.817	51.14627
976.984	66.69061
977.152	18.98327
977.319	89.09652
977.487	73.86654
977.654	50.7842
977.822	8.56927
977.989	41.24789
978.156	31.24521
978.324	52.65485
978.491	30.70169
978.658	-9.30724
978.826	48.83295
978.993	46.31825
979.16	34.40541
979.328	46.13718
979.495	57.70293
979.662	7.40072
979.829	25.66864
979.996	71.67578
980.163	70.85168
980.33	20.53395
980.498	27.78264
980.665	56.61697
980.832	0.99288
980.999	52.17211
981.166	22.58794
981.333	69.62554
981.5	58.62798
981.667	132.52951
981.833	-0.11555
982	84.87799
982.167	12.69911
982.334	34.48592
982.501	40.20151
982.668	45.73481
982.834	0.34798
983.001	81.96481
983.168	93.05331
983.335	28.54766
983.501	29.05096
983.668	18.25825
983.835	26.49413
984.001	55.16895
984.168	9.81836
984.334	53.86165
984.501	29.35293
984.668	19.40619
984.834	6.01047
985.001	-7.75491
985.167	78.20736
985.334	2.96779
985.5	26.19212
985.666	0.63013
985.833	-2.57441
985.999	20.83601
986.165	50.82443
986.332	74.97191
986.498	32.97632
986.664	41.73083
986.831	37.40425
986.997	22.14494
987.163	6.81642
987.329	27.48065
987.495	-1.1031
987.662	62.8305
987.828	3.18945
987.994	59.63343
988.16	63.35326
988.326	49.73819
988.492	21.19849
988.658	59.8144
988.824	57.72304
988.99	31.26534
989.156	14.29043
989.322	90.86409
989.488	53.53984
989.654	23.7961
989.82	25.78944
989.985	71.79637
990.151	79.41301
990.317	110.46036
990.483	16.52618
990.648	64.64
990.814	47.30404
990.98	47.38451
991.146	42.39484
991.311	58.54754
991.477	69.0426
991.643	-7.27109
991.808	15.11627
991.974	-7.75491
992.139	44.2862
992.305	45.75492
992.47	27.40012
992.636	35.39164
992.801	55.93319
992.967	39.29595
993.132	30.94326
993.298	116.20005
993.463	21.80261
993.628	36.31746
993.794	42.97836
993.959	71.13308
994.124	-3.07831
994.29	41.44912
994.455	63.73527
994.62	41.73083
994.785	80.03592
994.95	32.49323
995.116	69.66574
995.281	30.68156
995.446	31.70819
995.611	-15.63847
995.776	18.13741
995.941	61.20185
996.106	2.44385
996.271	39.19533
996.436	58.00458
996.601	70.79138
996.766	32.73478
996.931	52.77553
997.096	35.37152
997.261	6.01047
997.425	67.05247
997.59	21.21863
997.755	28.66845
997.92	36.1162
998.085	41.08691
998.249	19.99021
998.414	5.0433
998.579	1.89975
998.744	29.03083
998.908	65.28335
999.073	67.61535
999.237	60.71927
999.402	20.63463
999.567	39.87954
999.731	35.93506
999.896	-12.02908
1000.06	78.54896
1000.225	36.1967
1000.389	41.40887
1000.553	62.06646
1000.718	48.00815
1000.882	-12.08957
1001.047	30.72182
1001.211	24.29949
1001.375	87.56989
1001.54	19.9298
1001.704	17.65405
1001.868	75.19298
1002.032	95.70423
1002.197	51.4681
1002.361	36.53885
1002.525	48.7726
1002.689	46.4792
1002.853	7.38057
1003.017	12.43723
1003.181	13.86743
1003.345	24.33976
1003.509	64.19769
1003.673	44.26608
1003.837	65.66533
1004.001	27.29945
1004.165	29.53411
1004.329	81.60316
1004.493	35.77405
1004.657	42.03265
1004.821	15.74067
1004.985	56.25497
1005.149	23.35312
1005.312	52.55428
1005.476	36.21683
1005.64	115.71844
1005.804	14.371
1005.967	60.71927
1006.131	57.01919
1006.295	41.95217
1006.458	35.27088
1006.622	40.96618
1006.785	30.52052
1006.949	77.6447
1007.113	39.25571
1007.276	49.85888
1007.44	63.91621
1007.603	8.7103
1007.767	37.66587
1007.93	34.98911
1008.093	23.85651
1008.257	36.86086
1008.42	-5.94061
1008.584	56.53653
1008.747	39.55756
1008.91	49.47668
1009.073	8.42824
1009.237	34.82809
1009.4	54.78682
1009.563	-1.88913
1009.726	27.15852
1009.889	110.86178
1010.053	49.33586
1010.216	20.49367
1010.379	52.83587
1010.542	103.33425
1010.705	66.0674
1010.868	71.03258
1011.031	64.70031
1011.194	30.15817
1011.357	41.58997
1011.52	21.01725
1011.683	6.85672
1011.846	42.15339
1012.009	54.08289
1012.171	49.47668
1012.334	35.87468
1012.497	83.73285
1012.66	16.1435
1012.823	43.72283
1012.985	82.005
1013.148	55.99353
1013.311	23.13162
1013.473	40.52348
1013.636	3.55217
1013.799	64.61989
1013.961	72.56014
1014.124	36.69985
1014.286	36.69985
1014.449	3.71338
1014.612	76.70021
1014.774	23.81624
1014.936	32.97632
1015.099	16.42547
1015.261	-7.33156
1015.424	46.25789
1015.586	30.21856
1015.748	16.68731
1015.911	-0.29693
1016.073	133.83304
1016.235	57.62249
1016.398	67.87668
1016.56	64.68021
1016.722	8.42824
1016.884	30.88287
1017.047	54.18345
1017.209	33.27825
1017.371	19.62772
1017.533	9.63705
1017.695	79.37283
1017.857	62.12678
1018.019	91.86834
1018.181	59.41223
1018.343	34.16388
1018.505	25.60824
1018.667	-14.26725
1018.829	15.98237
1018.991	43.07897
1019.153	68.17822
1019.315	-15.61831
1019.477	6.49404
1019.638	28.66845
1019.8	-14.08577
1019.962	61.20185
1020.124	17.93602
1020.285	33.90222
1020.447	22.08453
1020.609	38.47086
1020.77	23.21216
1020.932	115.53784
1021.094	6.95746
1021.255	6.97761
1021.417	92.06919
1021.578	18.52007
1021.74	36.25708
1021.901	38.55136
1022.063	16.64703
1022.224	64.13737
1022.386	39.85941
1022.547	52.55428
1022.709	43.26005
1022.87	70.20846
1023.031	28.12489
1023.193	27.58131
1023.354	45.39278
1023.515	54.22368
1023.676	58.94973
1023.838	32.45297
1023.999	38.10862
1024.16	69.68584
1024.321	52.89621
1024.482	49.57726
1024.644	87.06769
1024.805	61.88549
1024.966	31.1043
1025.127	21.19849
1025.288	42.37472
1025.449	90.32178
1025.61	38.61173
1025.771	45.17147
1025.932	74.30869
1026.093	62.64955
1026.253	41.00642
1026.414	-16.94927
1026.575	18.68118
1026.736	10.92638
1026.897	25.54784
1027.058	47.00227
1027.218	46.74074
1027.379	2.464
1027.54	31.99
1027.7	44.24596
1027.861	60.67905
1028.022	43.94415
1028.182	34.9086
1028.343	49.61749
1028.504	14.59257
1028.664	28.86977
1028.825	40.66434
1028.985	58.02469
1029.146	10.42274
1029.306	14.79399
1029.466	83.57212
1029.627	77.00164
1029.787	32.27181
1029.948	26.03105
1030.108	40.70458
1030.268	75.33366
1030.429	-5.96077
1030.589	50.08016
1030.749	34.36516
1030.909	51.40776
1031.07	56.21475
1031.23	35.13
1031.39	-4.87225
1031.55	39.4167
1031.71	-8.78307
1031.87	26.23239
1032.03	53.96221
1032.19	40.38262
1032.35	29.31267
1032.51	75.0121
1032.67	0.52936
1032.83	21.76233
1032.99	30.07765
1033.15	59.99538
1033.31	65.22303
1033.47	-3.23956
1033.63	50.7842
1033.79	44.4874
1033.949	7.03805
1034.109	47.22357
1034.269	20.45339
1034.429	88.89565
1034.588	44.14536
1034.748	32.23155
1034.908	36.6596
1035.067	37.525
1035.227	38.95385
1035.387	37.46462
1035.546	82.34656
1035.706	8.89163
1035.865	75.35375
1036.025	35.04949
1036.184	37.50487
1036.344	43.56187
1036.503	58.94973
1036.662	13.90772
1036.822	33.76133
1036.981	28.5074
1037.14	36.55897
1037.3	18.13741
1037.459	35.25076
1037.618	70.93208
1037.778	76.39877
1037.937	61.76485
1038.096	29.03083
1038.255	44.70872
1038.414	23.29271
1038.573	78.83029
1038.733	50.76408
1038.892	47.74663
1039.051	81.86435
1039.21	75.11259
1039.369	17.85546
1039.528	72.03757
1039.687	55.73208
1039.846	78.10688
1040.005	20.29229
1040.164	55.34996
1040.322	22.16507
1040.481	49.73819
1040.64	17.45265
1040.799	14.59257
1040.958	85.17934
1041.116	29.93673
1041.275	16.4859
1041.434	41.75095
1041.593	0.30768
1041.751	46.59991
1041.91	55.34996
1042.069	-6.70663
1042.227	48.97377
1042.386	80.85973
1042.544	32.59388
1042.703	55.26951
1042.861	47.4851
1043.02	31.96987
1043.178	63.61463
1043.337	104.25774
1043.495	29.95686
1043.653	13.90772
1043.812	9.49602
1043.97	36.94136
1044.129	36.51872
1044.287	44.02464
1044.445	60.69916
1044.603	-14.67054
1044.762	-10.23465
1044.92	85.88246
1045.078	37.22312
1045.236	33.53992
1045.394	25.64851
1045.552	70.38937
