Data from deut_25ms_160_SR4014911__0__16-11-36-759.txt Node

Date: Sun Jul 13 16:11:36 EDT 2025
User: cryst
Spectrometer: SR401491
Trigger mode: 0
Integration Time (sec): 2.500000E-2
Scans to average: 160
Electric dark correction enabled: true
Nonlinearity correction enabled: true
Boxcar width: 0
XAxis mode: Wavelengths
Number of Pixels in Spectrum: 3648
>>>>>Begin Spectral Data<<<<<
344.912	-43.37306
345.129	-24.65735
345.347	-46.77303
345.565	-28.94689
345.783	12.57091
346.001	9.90571
346.219	6.48545
346.437	19.11037
346.654	20.41535
346.872	10.8644
347.09	-0.71692
347.308	20.32699
347.526	8.8382
347.743	15.03869
347.961	20.76197
348.179	25.70258
348.397	12.1086
348.614	45.08241
348.832	32.6804
349.05	50.31723
349.268	35.50633
349.485	47.56076
349.703	35.77804
349.921	57.32936
350.138	46.196
350.356	56.58954
350.574	34.28361
350.791	39.79901
351.009	48.71498
351.227	50.59558
351.444	36.26032
351.662	47.06511
351.879	41.56479
352.097	46.4676
352.314	32.14371
352.532	43.52058
352.75	42.6921
352.967	56.37234
353.185	50.41228
353.402	51.0097
353.62	31.52548
353.837	54.77724
354.055	40.22688
354.272	58.83608
354.49	54.66184
354.707	67.5829
354.925	41.34747
355.142	49.74695
355.359	52.06195
355.577	63.88502
355.794	52.48963
356.012	64.19715
356.229	50.05925
356.446	47.29596
356.664	40.451
356.881	61.40138
357.099	44.72931
357.316	49.26492
357.533	44.09779
357.751	49.46181
357.968	74.89576
358.185	54.96051
358.402	48.59277
358.62	60.35629
358.837	51.70215
359.054	43.86012
359.272	44.27434
359.489	45.15031
359.706	47.64224
359.923	63.30145
360.141	44.35583
360.358	67.98319
360.575	45.66637
360.792	52.47605
361.009	42.1692
361.226	53.35175
361.444	57.84518
361.661	47.98172
361.878	55.9583
362.095	53.90159
362.312	57.81124
362.529	53.68437
362.746	52.08911
362.963	45.78859
363.181	39.64959
363.398	49.38713
363.615	62.37858
363.832	40.3695
364.049	41.04865
364.266	72.56237
364.483	50.50054
364.7	55.22523
364.917	38.54252
365.134	54.77045
365.351	43.41193
365.568	57.1461
365.785	46.71203
366.002	40.71587
366.219	39.32359
366.436	59.60977
366.652	62.75859
366.869	48.00888
367.086	59.03968
367.303	46.70524
367.52	48.13109
367.737	72.13501
367.954	44.77684
368.171	52.21809
368.387	65.75777
368.604	49.87595
368.821	53.33817
369.038	56.65062
369.255	51.71573
369.471	39.44584
369.688	43.62924
369.905	56.99678
370.122	55.81576
370.339	53.6097
370.555	35.56068
370.772	47.23485
370.989	63.40324
371.205	53.7251
371.422	44.05026
371.639	55.20487
371.855	64.79427
372.072	56.87461
372.289	47.24843
372.505	72.17571
372.722	37.22485
372.939	57.2547
373.155	52.87657
373.372	53.71831
373.589	54.6279
373.805	43.3644
374.022	44.27434
374.238	46.59661
374.455	42.6174
374.671	60.07804
374.888	46.99042
375.104	43.35082
375.321	38.27763
375.537	55.96509
375.754	50.1543
375.97	61.91713
376.187	62.28357
376.403	53.03949
376.62	44.75647
376.836	43.25575
377.053	42.3933
377.269	49.6519
377.486	38.97041
377.702	32.5717
377.918	32.51735
378.135	63.39645
378.351	47.38423
378.568	59.78622
378.784	45.85649
379	62.56858
379.217	44.75647
379.433	45.67995
379.649	49.83521
379.865	50.2154
380.082	66.15809
380.298	47.56076
380.514	63.54574
380.731	55.30669
380.947	36.17202
381.163	57.64835
381.379	41.19806
381.596	60.93992
381.812	60.04411
382.028	57.44474
382.244	54.64148
382.46	46.90215
382.676	66.27343
382.893	60.26128
383.109	48.85756
383.325	56.67099
383.541	53.23635
383.757	34.85422
383.973	45.48982
384.189	79.00583
384.405	50.59558
384.622	54.27493
384.838	47.63545
385.054	63.74252
385.27	59.58262
385.486	54.47857
385.702	44.49164
385.918	60.69561
386.134	49.0884
386.35	60.98064
386.566	58.76142
386.782	69.19081
386.998	52.93766
387.214	60.16627
387.43	55.29311
387.646	74.00041
387.861	56.77958
388.077	70.46622
388.293	57.48546
388.509	63.22681
388.725	55.63928
388.941	62.10035
389.157	45.48982
389.373	63.67466
389.588	54.5736
389.804	52.90372
390.02	63.03002
390.236	46.58303
390.452	45.17068
390.668	54.32923
390.883	61.93749
391.099	61.50318
391.315	56.10763
391.531	53.664
391.746	48.23293
391.962	55.63928
392.178	58.14381
392.393	55.98545
392.609	70.32376
392.825	70.99536
393.041	46.90215
393.256	63.9868
393.472	61.18422
393.687	67.12833
393.903	59.9491
394.119	60.49202
394.334	56.18908
394.55	73.17287
394.766	55.16414
394.981	75.21455
395.197	64.0818
395.412	83.34582
395.628	71.23958
395.843	79.57549
396.059	97.56798
396.274	82.59993
396.49	84.13236
396.705	66.76873
396.921	53.43999
397.136	65.3778
397.352	53.33138
397.567	59.71157
397.783	60.11197
397.998	77.28998
398.214	59.86087
398.429	52.20451
398.644	75.30272
398.86	57.66193
399.075	68.27493
399.29	60.83812
399.506	46.71882
399.721	62.02571
399.936	59.3383
400.152	59.30437
400.367	54.32923
400.582	69.12297
400.798	67.98998
401.013	48.02924
401.228	62.18178
401.444	61.88999
401.659	54.8519
401.874	79.63652
402.089	51.56638
402.304	75.41125
402.52	58.66641
402.735	55.28632
402.95	53.30423
403.165	80.85719
403.38	68.53274
403.596	55.42208
403.811	65.45923
404.026	79.58905
404.241	52.54393
404.456	55.62571
404.671	73.75622
404.886	74.44809
405.101	58.21847
405.316	63.70859
405.532	73.93258
405.747	67.68467
405.962	66.71445
406.177	63.26752
406.392	50.22898
406.607	82.15239
406.822	73.41028
407.037	87.90884
407.252	85.04771
407.467	99.47907
407.682	84.41714
407.896	101.84402
408.111	96.36162
408.326	99.46551
408.541	123.30899
408.756	138.72171
408.971	140.54873
409.186	143.68822
409.401	128.05489
409.616	69.76747
409.83	57.6212
410.045	53.74546
410.26	50.50054
410.475	55.57819
410.69	50.16109
410.905	76.96443
411.119	38.35235
411.334	61.2928
411.549	52.04837
411.764	78.07671
411.978	80.22652
412.193	71.47701
412.408	52.70686
412.623	47.60829
412.837	74.15642
413.052	62.5143
413.267	64.30572
413.481	59.08719
413.696	42.55629
413.911	54.98087
414.125	45.95834
414.34	55.3542
414.554	52.88335
414.769	70.45265
414.984	52.49642
415.198	49.05445
415.413	49.74016
415.627	66.74838
415.842	54.71615
416.056	62.77216
416.271	46.47439
416.485	78.67352
416.7	66.48377
416.914	65.37102
417.129	61.62533
417.343	70.68331
417.558	58.1506
417.772	72.60985
417.987	59.19578
418.201	58.72749
418.415	42.48158
418.63	57.0918
418.844	52.12305
419.059	70.54084
419.273	53.08022
419.487	75.62151
419.702	65.16068
419.916	87.04782
420.13	56.99678
420.345	59.76586
420.559	58.63247
420.773	61.47603
420.988	59.84051
421.202	77.7783
421.416	52.61861
421.63	75.89959
421.845	73.56629
422.059	58.16417
422.273	42.23711
422.487	61.52353
422.701	74.10894
422.916	82.24732
423.13	56.22301
423.344	61.90356
423.558	55.65286
423.772	52.09589
423.986	57.15289
424.201	61.06886
424.415	76.56428
424.629	61.67283
424.843	62.81288
425.057	73.70874
425.271	49.51612
425.485	55.38135
425.699	50.01173
425.913	72.15536
426.127	57.15289
426.341	54.39033
426.555	56.03975
426.769	75.32307
426.983	72.75909
427.197	77.66978
427.411	55.87685
427.625	70.94788
427.839	52.7408
428.053	63.59324
428.267	48.33477
428.481	75.83855
428.695	49.95742
428.908	58.11666
429.122	60.14591
429.336	71.78905
429.55	61.40138
429.764	76.25228
429.978	92.05083
430.191	97.92716
430.405	119.30717
430.619	121.26414
430.833	153.9838
431.047	195.81688
431.26	253.33554
431.474	310.51704
431.688	328.53086
431.901	358.52942
432.115	412.45075
432.329	468.83877
432.543	494.99524
432.756	601.38924
432.97	615.39119
433.184	434.00703
433.397	198.02507
433.611	100.17705
433.824	75.5469
434.038	76.45576
434.252	60.09161
434.465	63.44395
434.679	54.18669
434.892	71.47022
435.106	40.88566
435.319	59.75229
435.533	66.87729
435.747	71.38203
435.96	52.36743
436.174	77.35102
436.387	70.37125
436.601	73.51203
436.814	68.45811
437.027	55.93794
437.241	60.16627
437.454	50.62953
437.668	74.35313
437.881	70.52049
438.095	65.45244
438.308	74.9568
438.521	73.54594
438.735	72.35887
438.948	72.65055
439.161	65.02497
439.375	58.9786
439.588	76.15733
439.801	64.06144
440.015	72.45384
440.228	72.66412
440.441	88.79694
440.654	91.45431
440.868	84.4307
441.081	55.08948
441.294	79.52124
441.507	74.06146
441.721	67.57612
441.934	70.91396
442.147	67.01977
442.36	69.38756
442.573	80.91144
442.786	58.44244
443	73.55273
443.213	57.04429
443.426	70.83933
443.639	84.59343
443.852	78.78203
444.065	76.05559
444.278	75.03141
444.491	72.74552
444.704	64.67892
444.917	75.56725
445.13	74.41417
445.343	72.91511
445.556	97.75096
445.769	91.60344
445.982	79.02617
446.195	67.96284
446.408	78.7549
446.621	84.17983
446.834	78.55144
447.047	64.46857
447.26	72.43349
447.473	79.00583
447.686	84.55953
447.899	64.84855
448.111	84.27475
448.324	74.8008
448.537	81.48106
448.75	73.00329
448.963	78.59213
449.176	82.93219
449.388	86.48509
449.601	69.1976
449.814	71.32098
450.027	71.61946
450.239	82.24054
450.452	64.29215
450.665	70.02526
450.878	65.62885
451.09	73.74944
451.303	65.18103
451.516	67.13511
451.728	69.50289
451.941	68.7227
452.154	76.1302
452.366	82.95931
452.579	62.58216
452.792	85.53589
453.004	69.99813
453.217	72.58272
453.429	67.63718
453.642	64.40072
453.854	76.89661
454.067	94.39609
454.28	83.64416
454.492	64.59071
454.705	63.90537
454.917	61.02135
455.13	83.8408
455.342	83.37294
455.555	61.15708
455.767	91.17638
455.979	62.58216
456.192	82.98644
456.404	62.16143
456.617	79.24997
456.829	62.19536
457.041	86.13254
457.254	78.20556
457.466	73.27462
457.679	65.88669
457.891	93.06758
458.103	73.62734
458.315	82.70164
458.528	59.37902
458.74	63.90537
458.952	77.33068
459.165	72.93546
459.377	54.63469
459.589	58.89037
459.801	74.44131
460.014	79.08043
460.226	64.74677
460.438	61.8832
460.65	60.66846
460.862	89.77993
461.075	68.57344
461.287	72.54202
461.499	55.93794
461.711	61.78141
461.923	59.57583
462.135	81.18269
462.347	65.13353
462.559	77.81221
462.771	74.51592
462.983	65.95454
463.196	71.42952
463.408	80.15192
463.62	71.19209
463.832	87.61731
464.044	73.31532
464.256	89.44775
464.468	60.99421
464.68	81.16913
464.891	67.52862
465.103	68.53274
465.315	78.0428
465.527	67.94927
465.739	46.18921
465.951	72.87441
466.163	68.11888
466.375	61.58461
466.587	70.61547
466.799	68.89231
467.01	58.11666
467.222	70.57476
467.434	53.79977
467.646	61.65926
467.858	67.42685
468.069	69.74033
468.281	57.48546
468.493	57.43795
468.705	54.91299
468.916	65.90026
469.128	45.70711
469.34	55.59177
469.551	50.09999
469.763	45.49661
469.975	46.52192
470.186	56.73207
470.398	52.35386
470.61	63.79681
470.821	33.63826
471.033	59.10076
471.245	71.46344
471.456	58.98539
471.668	55.91757
471.879	63.43038
472.091	64.67213
472.302	80.24686
472.514	63.49145
472.725	66.96549
472.937	47.65581
473.148	58.10309
473.36	51.46455
473.571	83.2102
473.783	50.09999
473.994	63.01645
474.206	53.94232
474.417	56.46058
474.629	60.89241
474.84	81.12844
475.051	79.90779
475.263	52.87657
475.474	58.75464
475.685	74.2853
475.897	54.82475
476.108	79.67043
476.319	56.48773
476.531	62.88752
476.742	65.75099
476.953	81.5014
477.165	87.26477
477.376	73.47811
477.587	59.24329
477.798	64.57714
478.01	59.76586
478.221	84.72904
478.432	57.86554
478.643	68.22065
478.854	50.85356
479.065	103.13144
479.277	84.02388
479.488	81.34544
479.699	81.51497
479.91	71.53806
480.121	77.11364
480.332	76.95087
480.543	70.79185
480.754	60.42415
480.965	74.30565
481.176	76.978
481.387	86.55289
481.598	74.30565
481.809	86.58679
482.02	131.54101
482.231	240.00179
482.442	491.58565
482.653	995.89637
482.864	1664.86885
483.075	2652.24306
483.286	3861.72993
483.497	5237.93363
483.708	6366.89966
483.919	7289.91166
484.13	8134.68882
484.341	9306.17922
484.551	10930.36971
484.762	12350.52336
484.973	12721.41416
485.184	8634.5792
485.395	2672.2945
485.605	727.56397
485.816	330.46002
486.027	180.07769
486.238	139.439
486.449	148.69443
486.659	118.7722
486.87	99.43841
487.081	98.84883
487.291	92.45075
487.502	98.07626
487.713	70.91396
487.923	87.0207
488.134	78.17165
488.345	109.50669
488.555	89.57655
488.766	65.03176
488.976	95.43309
489.187	89.83416
489.398	87.4207
489.608	88.39696
489.819	77.52736
490.029	72.23677
490.24	89.62401
490.45	104.23587
490.661	84.72904
490.871	82.13204
491.082	61.74069
491.292	76.61854
491.503	86.19356
491.713	91.35941
491.924	79.18893
492.134	82.62027
492.344	75.12637
492.555	86.79019
492.765	82.75589
492.975	86.32237
493.186	89.14947
493.396	97.83229
493.607	59.79301
493.817	91.97626
494.027	75.54012
494.237	70.50014
494.448	65.86633
494.658	91.17638
494.868	71.1446
495.078	84.87821
495.289	92.04405
495.499	77.48667
495.709	62.84002
495.919	78.81594
496.129	74.7194
496.34	63.26074
496.55	55.21844
496.76	88.62068
496.97	72.61664
497.18	79.90779
497.39	74.62444
497.6	89.77993
497.81	90.45105
498.021	91.09504
498.231	88.79016
498.441	85.54945
498.651	73.763
498.861	62.83323
499.071	69.50289
499.281	90.89845
499.491	78.33442
499.701	77.5477
499.911	69.8828
500.121	80.91144
500.331	83.06102
500.54	105.2454
500.75	77.63587
500.96	82.51178
501.17	60.73633
501.38	79.33813
501.59	72.88119
501.8	80.21974
502.01	57.82482
502.219	83.10849
502.429	81.60312
502.639	101.24094
502.849	87.66477
503.059	75.58081
503.268	90.41037
503.478	80.35537
503.688	76.29298
503.898	79.82641
504.107	66.12416
504.317	97.12746
504.527	74.78723
504.736	92.64055
504.946	71.59233
505.156	86.56645
505.365	69.12976
505.575	75.26203
505.785	71.21923
505.994	88.74949
506.204	68.4174
506.413	81.24372
506.623	61.61854
506.832	92.91846
507.042	74.25817
507.251	81.65737
507.461	84.55953
507.67	85.17654
507.88	59.98303
508.089	86.32237
508.299	78.79559
508.508	80.97247
508.718	58.85644
508.927	75.45194
509.137	95.90753
509.346	93.52172
509.555	57.9945
509.765	72.28425
509.974	119.46292
510.184	88.99354
510.393	64.90962
510.602	80.32146
510.812	92.74223
511.021	80.74869
511.23	92.87779
511.439	78.37511
511.649	63.10467
511.858	78.64639
512.067	79.10077
512.276	83.98997
512.486	136.387
512.695	83.50177
512.904	59.91516
513.113	84.09846
513.322	67.73216
513.531	93.61662
513.741	76.59141
513.95	63.69502
514.159	80.53846
514.368	70.99536
514.577	75.04498
514.786	73.39672
514.995	60.65489
515.204	77.14756
515.413	62.96216
515.622	64.97747
515.831	71.36168
516.04	79.30422
516.249	58.86322
516.458	75.84533
516.667	76.2862
516.876	90.93235
517.085	63.64074
517.294	79.90779
517.503	68.05782
517.712	88.26815
517.921	80.43674
518.13	86.77663
518.339	66.87729
518.547	97.58831
518.756	63.14538
518.965	74.62444
519.174	63.57288
519.383	78.04958
519.591	65.33709
519.8	66.46341
520.009	74.54983
520.218	70.5612
520.426	67.24367
520.635	84.63412
520.844	75.00428
521.053	84.87143
521.261	81.52853
521.47	85.33926
521.679	69.57751
521.887	73.99363
522.096	71.68052
522.304	74.29208
522.513	58.08951
522.722	65.75777
522.93	79.6094
523.139	78.12418
523.347	59.94231
523.556	69.68606
523.764	64.29893
523.973	74.82115
524.182	63.51859
524.39	76.84235
524.598	56.1755
524.807	66.87051
525.015	64.85534
525.224	78.9787
525.432	63.79002
525.641	65.02497
525.849	64.88248
526.057	73.45776
526.266	79.6094
526.474	67.71181
526.683	68.74305
526.891	82.78301
527.099	65.56779
527.308	83.02034
527.516	59.43331
527.724	84.30866
527.932	61.45567
528.141	81.58956
528.349	88.4173
528.557	71.2735
528.765	63.49824
528.974	61.14351
529.182	59.45367
529.39	72.9965
529.598	57.77052
529.806	63.04359
530.015	68.62772
530.223	70.18808
530.431	65.9274
530.639	54.13917
530.847	59.22971
531.055	74.30565
531.263	71.86367
531.471	52.22488
531.679	59.51475
531.887	74.02076
532.095	71.26671
532.303	84.99347
532.511	67.77966
532.719	74.17677
532.927	66.98585
533.135	79.18215
533.343	71.51771
533.551	78.09705
533.759	66.71445
533.967	81.92183
534.175	70.07275
534.383	83.23054
534.591	84.40358
534.798	84.87821
535.006	62.03249
535.214	73.62734
535.422	66.3345
535.63	80.80294
535.837	61.4896
536.045	65.87312
536.253	59.63013
536.461	78.59892
536.668	64.77391
536.876	74.08859
537.084	81.99642
537.292	73.89867
537.499	90.26802
537.707	87.06138
537.915	76.41506
538.122	93.02014
538.33	79.48055
538.538	81.25728
538.745	69.21117
538.953	97.45954
539.16	76.23872
539.368	76.59141
539.575	58.57139
539.783	81.56922
539.99	84.25441
540.198	77.89359
540.406	70.73079
540.613	73.83084
540.82	58.99896
541.028	73.85797
541.235	68.01033
541.443	95.08065
541.65	99.5265
541.858	90.30869
542.065	66.59911
542.272	70.5612
542.48	92.72189
542.687	72.44027
542.895	84.7426
543.102	76.95765
543.309	88.70203
543.516	90.07821
543.724	79.46698
543.931	75.55368
544.138	88.23425
544.346	79.10755
544.553	69.1094
544.76	70.27627
544.967	71.84332
545.174	85.12908
545.382	72.29103
545.589	81.81334
545.796	85.0545
546.003	67.86786
546.21	77.65622
546.417	100.49555
546.624	73.87153
546.832	82.49822
547.039	67.97641
547.246	96.23285
547.453	82.60671
547.66	58.90395
547.867	84.91889
548.074	82.32869
548.281	72.68447
548.488	71.29385
548.695	70.56798
548.902	82.62705
549.109	73.68161
549.316	62.16821
549.523	63.15217
549.73	71.1039
549.936	64.10216
550.143	77.24929
550.35	62.96895
550.557	72.20963
550.764	61.64569
550.971	91.86103
551.178	69.91672
551.384	81.75909
551.591	80.5249
551.798	88.01053
552.005	68.28171
552.211	87.62409
552.418	67.94249
552.625	63.05038
552.832	78.6057
553.038	71.99256
553.245	69.95742
553.452	85.01381
553.658	61.26566
553.865	70.59512
554.072	69.34007
554.278	79.43986
554.485	98.80139
554.691	95.30432
554.898	68.14602
555.105	84.00353
555.311	70.96144
555.518	86.58001
555.724	79.62296
555.931	67.08762
556.137	65.44565
556.344	83.83402
556.55	75.34342
556.757	76.91018
556.963	76.15055
557.17	82.01677
557.376	77.22894
557.582	99.54006
557.789	66.43627
557.995	76.91696
558.202	59.68442
558.408	83.95607
558.614	70.59512
558.821	78.21913
559.027	85.09518
559.233	91.08826
559.439	92.0915
559.646	71.23279
559.852	77.43919
560.058	82.54568
560.264	74.62444
560.471	77.31033
560.677	85.56301
560.883	97.87295
561.089	81.6845
561.295	86.64103
561.502	78.56501
561.708	83.04746
561.914	75.83855
562.12	85.92236
562.326	88.47153
562.532	88.89185
562.738	77.69013
562.944	77.14077
563.15	77.44597
563.356	78.27338
563.562	77.46632
563.768	89.24437
563.974	61.01457
564.18	90.34259
564.386	74.46844
564.592	81.48106
564.798	65.40494
565.004	100.20416
565.21	62.20214
565.416	87.20375
565.622	88.55289
565.828	88.13934
566.034	88.15968
566.239	81.12844
566.445	91.52887
566.651	93.52172
566.857	97.74418
567.063	102.90784
567.268	101.22061
567.474	109.1612
567.68	101.99987
567.886	125.03548
568.091	118.87378
568.297	109.51346
568.503	108.61926
568.708	127.81795
568.914	126.62646
569.12	139.06005
569.325	116.40871
569.531	122.82826
569.737	104.30363
569.942	122.35429
570.148	131.58162
570.353	166.08061
570.559	149.86467
570.765	134.82365
570.97	135.98094
571.176	162.69349
571.381	123.99283
571.587	113.4422
571.792	119.80828
571.998	124.94746
572.203	118.59613
572.408	154.21375
572.614	169.87289
572.819	155.2485
573.025	137.05698
573.23	145.25107
573.435	135.05376
573.641	147.08443
573.846	124.72404
574.051	142.61921
574.257	151.65038
574.462	165.05303
574.667	134.19423
574.873	134.89133
575.078	153.78766
575.283	148.07885
575.488	154.07848
575.694	171.49509
575.899	139.93297
576.104	150.31787
576.309	166.40511
576.514	173.64437
576.719	197.40382
576.925	217.66153
577.13	199.5106
577.335	182.26685
577.54	169.68362
577.745	148.77561
577.95	160.84764
578.155	151.35953
578.36	135.6967
578.565	149.25588
578.77	177.11801
578.975	190.94071
579.18	156.53342
579.385	181.24661
579.59	194.6013
579.795	165.45866
580	134.39727
580.205	145.35932
580.41	196.02623
580.615	291.57677
580.82	294.23521
581.024	254.21166
581.229	239.48261
581.434	232.18605
581.639	180.36824
581.844	162.35544
582.049	138.85705
582.253	165.16796
582.458	141.27951
582.663	121.84646
582.868	122.34075
583.072	132.61045
583.277	146.88148
583.482	172.17774
583.686	176.34763
583.891	161.63198
584.096	168.41282
584.3	190.26527
584.505	162.73406
584.71	183.84104
584.914	174.25938
585.119	172.65761
585.323	151.09574
585.528	124.35844
585.733	138.24125
585.937	148.06532
586.142	117.69545
586.346	169.08203
586.551	145.90054
586.755	160.82736
586.959	191.39999
587.164	186.7865
587.368	153.91616
587.573	188.1578
587.777	241.82224
587.982	720.30201
588.186	1687.13637
588.39	725.66566
588.595	464.00097
588.799	912.18978
589.003	409.47442
589.208	192.2375
589.412	149.16795
589.616	140.35927
589.82	137.00284
590.025	115.10836
590.229	115.53504
590.433	118.49455
590.637	117.36361
590.842	153.63211
591.046	153.99732
591.25	142.70717
591.454	101.48489
591.658	135.91327
591.862	167.79092
592.067	251.43495
592.271	208.32765
592.475	178.44923
592.679	169.68362
592.883	166.62143
593.087	164.91782
593.291	150.13524
593.495	136.99607
593.699	127.49977
593.903	166.27666
594.107	200.82726
594.311	196.94463
594.515	179.46956
594.719	147.24678
594.923	155.28231
595.127	164.56626
595.33	161.15868
595.534	119.29363
595.738	167.59488
595.942	148.55914
596.146	129.23277
596.35	142.09146
596.553	140.77879
596.757	145.86671
596.961	185.23274
597.165	143.68146
597.369	119.53064
597.572	121.0136
597.776	131.06042
597.98	170.94761
598.183	192.36583
598.387	166.60791
598.591	142.34857
598.794	144.5204
598.998	150.41257
599.202	170.21085
599.405	187.7525
599.609	166.49975
599.812	176.00297
600.016	171.28556
600.22	200.41539
600.423	187.21209
600.627	179.75336
600.83	147.97062
601.034	173.38079
601.237	194.47298
601.441	127.12066
601.644	149.35735
601.847	181.70606
602.051	147.3212
602.254	156.9527
602.458	161.65902
602.661	197.50512
602.864	157.115
603.068	151.49481
603.271	125.36045
603.475	138.47133
603.678	141.87494
603.881	146.08996
604.084	119.32749
604.288	134.01149
604.491	157.55456
604.694	162.74082
604.897	123.72877
605.101	144.40538
605.304	152.00886
605.507	135.78468
605.71	113.78764
605.913	157.18939
606.116	149.9729
606.32	164.96514
606.523	134.54616
606.726	144.62865
606.929	153.79443
607.132	144.87897
607.335	144.90603
607.538	131.54101
607.741	126.83633
607.944	115.94818
608.147	109.99443
608.35	128.23766
608.553	115.30477
608.756	135.38538
608.959	135.15528
609.162	168.66969
609.365	148.87708
609.568	152.67846
609.771	103.91742
609.973	142.17942
610.176	148.34944
610.379	126.87018
610.582	109.66927
610.785	139.11419
610.988	123.23451
611.19	118.68416
611.393	103.42958
611.596	107.01368
611.799	108.94443
612.001	130.36999
612.204	120.88495
612.407	116.90309
612.609	116.30712
612.812	135.717
613.015	136.07569
613.217	127.68255
613.42	106.42427
613.623	124.08761
613.825	127.8518
614.028	141.08328
614.23	129.666
614.433	107.47436
614.636	118.56227
614.838	140.65023
615.041	145.00751
615.243	105.02859
615.446	96.32096
615.648	93.84707
615.85	91.63055
616.053	86.919
616.255	114.47849
616.458	102.1896
616.66	97.37144
616.863	93.6844
617.065	99.16734
617.267	115.5215
617.47	91.40686
617.672	102.31157
617.874	83.39328
618.077	95.88042
618.279	98.71329
618.481	119.55095
618.683	79.60262
618.886	86.34271
619.088	116.9505
619.29	118.57581
619.492	79.61618
619.694	93.59628
619.897	95.8262
620.099	86.85121
620.301	71.92472
620.503	68.95337
620.705	92.68122
620.907	85.75285
621.109	83.45431
621.311	104.35105
621.513	103.42958
621.715	115.56214
621.917	106.73591
622.119	103.11112
622.321	103.00948
622.523	103.72093
622.725	84.59343
622.927	86.90544
623.129	82.24732
623.331	87.87494
623.533	77.97498
623.735	97.0258
623.937	101.25449
624.139	86.81053
624.341	85.46809
624.542	73.17287
624.744	75.05176
624.946	83.74587
625.148	77.37137
625.35	84.13914
625.551	70.47301
625.753	68.89909
625.955	77.83255
626.156	87.40714
626.358	81.53531
626.56	78.05636
626.762	100.30581
626.963	91.44075
627.165	80.44352
627.366	97.90683
627.568	83.25767
627.77	83.13561
627.971	83.773
628.173	92.63377
628.374	68.05104
628.576	77.18147
628.777	97.01902
628.979	71.42952
629.18	66.34128
629.382	72.16215
629.583	81.37256
629.785	90.57985
629.986	56.37234
630.188	76.44219
630.389	71.57876
630.591	88.43086
630.792	64.84855
630.993	59.25686
631.195	58.02843
631.396	67.10797
631.597	52.86978
631.799	61.80855
632	82.45753
632.201	65.82562
632.402	80.4164
632.604	85.55623
632.805	57.01035
633.006	74.1632
633.207	77.02547
633.409	91.98982
633.61	59.38581
633.811	66.28022
634.012	80.04342
634.213	80.78937
634.414	78.7549
634.615	70.58155
634.816	81.63025
635.017	86.93934
635.219	75.01785
635.42	84.24763
635.621	75.18063
635.822	87.48172
636.023	79.26353
636.224	81.27763
636.425	67.75252
636.626	69.11619
636.826	59.07362
637.027	75.52655
637.228	61.02135
637.429	63.51859
637.63	75.02463
637.831	61.40138
638.032	56.43343
638.233	57.34972
638.433	53.3178
638.634	63.53217
638.835	57.34972
639.036	82.11848
639.237	47.43854
639.437	51.47134
639.638	60.45808
639.839	63.00288
640.039	50.92145
640.24	74.44131
640.441	55.10305
640.641	58.55103
640.842	49.05445
641.043	63.63395
641.243	44.92623
641.444	60.57345
641.645	61.46246
641.845	57.24791
642.046	49.22418
642.246	56.6099
642.447	32.29996
642.647	55.66643
642.848	69.65214
643.048	71.67373
643.249	61.6389
643.449	60.66168
643.65	50.47338
643.85	52.08911
644.05	50.56164
644.251	51.17942
644.451	54.87227
644.651	61.10279
644.852	53.39926
645.052	64.21072
645.252	57.34972
645.453	58.94467
645.653	41.6327
645.853	52.87657
646.054	39.82618
646.254	64.02073
646.454	39.13342
646.654	47.57434
646.854	49.16308
647.055	63.03002
647.255	44.17249
647.455	75.10602
647.655	46.06698
647.855	69.25187
648.055	45.5034
648.255	54.5193
648.455	66.32771
648.655	56.50809
648.856	54.64148
649.056	63.16574
649.256	60.39022
649.456	64.29215
649.656	51.28804
649.856	74.90254
650.055	53.39926
650.255	74.44809
650.455	69.12297
650.655	76.72027
650.855	91.45431
651.055	121.10163
651.255	111.71498
651.455	116.38162
651.655	93.44039
651.854	98.30668
652.054	74.33278
652.254	99.00469
652.454	103.25341
652.654	114.72231
652.853	143.42436
653.053	201.16485
653.253	360.97365
653.452	1012.38056
653.652	4048.55599
653.852	10617.7382
654.051	21028.10065
654.251	36188.73497
654.451	55122.50887
654.65	63479.80729
654.85	63479.80729
655.049	63479.80729
655.249	63479.80729
655.449	63479.80729
655.648	63479.80729
655.848	63479.80729
656.047	18653.86975
656.247	8943.61389
656.446	7197.624
656.645	5154.38054
656.845	3760.14777
657.044	2520.78161
657.244	1818.08982
657.443	1281.36389
657.643	1090.69909
657.842	876.98244
658.041	810.42258
658.241	709.28659
658.44	661.59753
658.639	573.08032
658.839	583.78825
659.038	519.92739
659.237	504.75396
659.436	452.18097
659.636	468.39717
659.835	410.18501
660.034	410.80844
660.233	386.88091
660.432	371.30569
660.631	362.03454
660.831	363.08197
661.03	335.89728
661.229	342.11293
661.428	315.7159
661.627	313.36879
661.826	299.02651
662.025	292.71421
662.224	271.37141
662.423	279.06875
662.622	249.06915
662.821	257.71586
663.02	267.45797
663.219	245.31447
663.418	252.884
663.617	245.33469
663.816	227.47803
664.015	211.92524
664.214	217.89771
664.412	207.45687
664.611	219.54414
664.81	213.27506
665.009	218.94361
665.208	194.034
665.406	178.74655
665.605	191.25816
665.804	183.44919
666.003	187.18506
666.201	168.62913
666.4	162.50418
666.599	171.66406
666.798	175.34745
666.996	171.14362
667.195	155.7219
667.394	153.86206
667.592	168.34522
667.791	163.4913
667.989	156.14119
668.188	160.69213
668.386	167.68952
668.585	163.20733
668.783	156.83774
668.982	154.72774
669.18	159.67111
669.379	149.55352
669.577	136.83365
669.776	144.56776
669.974	140.66376
670.173	139.62847
670.371	132.06896
670.57	143.81001
670.768	137.2397
670.966	137.85552
671.165	152.8746
671.363	135.25003
671.561	133.49034
671.76	144.59482
671.958	153.46302
672.156	136.1366
672.354	114.68845
672.553	131.20934
672.751	106.66816
672.949	124.61571
673.147	132.19757
673.345	113.11032
673.543	131.79822
673.742	103.24663
673.94	105.40123
674.138	116.97759
674.336	108.37538
674.534	111.93851
674.732	124.73758
674.93	117.35006
675.128	97.03936
675.326	108.1586
675.524	97.21556
675.722	118.73834
675.92	100.17705
676.118	99.11312
676.316	107.88084
676.514	109.37121
676.712	90.20701
676.91	106.09229
677.108	101.86435
677.305	112.96808
677.503	99.56039
677.701	110.44828
677.899	88.39018
678.097	108.23311
678.295	93.27771
678.492	92.79645
678.69	106.08552
678.888	98.46932
679.085	117.60741
679.283	96.80893
679.481	90.93913
679.679	95.8262
679.876	81.53531
680.074	107.84697
680.271	85.48165
680.469	84.60021
680.667	94.74854
680.864	93.70473
681.062	92.17284
681.259	96.89026
681.457	72.94224
681.654	96.59205
681.852	67.70503
682.049	85.0545
682.247	76.10985
682.444	79.41273
682.642	87.5563
682.839	83.52211
683.037	81.80655
683.234	105.15732
683.431	80.3079
683.629	80.19261
683.826	73.13217
684.023	96.91059
684.221	99.39097
684.418	98.04915
684.615	100.25159
684.813	98.18469
685.01	98.78784
685.207	86.61391
685.404	66.08345
685.601	96.51072
685.799	93.67084
685.996	86.43085
686.193	78.92444
686.39	71.6059
686.587	93.41327
686.784	81.71162
686.981	78.83628
687.179	79.90779
687.376	72.17571
687.573	81.65737
687.77	73.81049
687.967	73.17287
688.164	74.08181
688.361	80.36215
688.558	72.39279
688.755	67.72538
688.952	92.67444
689.148	72.78622
689.345	70.75793
689.542	76.9373
689.739	71.34812
689.936	63.34217
690.133	71.17852
690.33	71.22601
690.526	72.32495
690.723	101.97954
690.92	81.47428
691.117	75.1942
691.314	57.54655
691.51	72.98294
691.707	66.918
691.904	75.63507
692.1	88.92575
692.297	73.39672
692.494	57.70944
692.69	104.0055
692.887	76.81522
693.084	73.47133
693.28	62.19536
693.477	77.31711
693.673	55.98545
693.87	72.9558
694.066	54.51251
694.263	71.20566
694.459	63.14538
694.656	63.38967
694.852	61.50318
695.049	73.38993
695.245	74.85506
695.442	77.19503
695.638	51.17264
695.834	67.51506
696.031	68.84482
696.227	69.5843
696.423	80.3079
696.62	82.79657
696.816	75.13315
697.012	61.16387
697.209	66.09702
697.405	73.79014
697.601	77.75795
697.797	66.34807
697.994	55.94473
698.19	56.15514
698.386	69.26544
698.582	76.73384
698.778	48.31441
698.974	54.30208
699.17	63.75609
699.367	66.15809
699.563	79.7925
699.759	58.47637
699.955	59.62334
700.151	63.91216
700.347	59.8948
700.543	68.33599
700.739	73.43063
700.935	56.3927
701.131	49.33281
701.327	65.73742
701.523	73.56629
701.718	54.04414
701.914	59.16184
702.11	68.26136
702.306	69.68606
702.502	65.02497
702.698	50.67705
702.894	61.05528
703.089	43.75826
703.285	51.49171
703.481	47.14658
703.677	58.23204
703.872	49.04766
704.068	57.66193
704.264	40.30159
704.459	39.43226
704.655	44.34225
704.851	48.1243
705.046	47.01079
705.242	43.46626
705.438	40.24726
705.633	51.57317
705.829	48.78967
706.024	55.66643
706.22	67.44721
706.415	65.16746
706.611	52.98518
706.806	75.96742
707.002	51.49171
707.197	66.99942
707.393	57.86554
707.588	68.89231
707.784	59.3383
707.979	52.79511
708.174	49.95063
708.37	54.50572
708.565	56.53524
708.76	49.63154
708.956	47.30275
709.151	55.32026
709.346	43.01807
709.542	46.06698
709.737	43.61565
709.932	53.05306
710.127	46.5355
710.322	49.60438
710.518	45.11636
710.713	53.97626
710.908	37.46937
711.103	45.0892
711.298	49.74695
711.493	46.86141
711.688	45.02129
711.883	49.10877
712.078	62.84002
712.273	71.97899
712.468	41.89755
712.663	52.02122
712.858	51.33557
713.053	60.08483
713.248	55.38135
713.443	57.68908
713.638	40.24047
713.833	52.40138
714.028	50.83998
714.223	60.53952
714.418	73.0372
714.613	52.33349
714.807	68.51917
715.002	46.04661
715.197	44.32867
715.392	40.81095
715.587	41.40859
715.781	55.42886
715.976	39.54772
716.171	60.96028
716.365	47.30275
716.56	60.302
716.755	26.23261
716.949	44.00951
717.144	42.02658
717.339	46.30464
717.533	49.24455
717.728	60.39701
717.922	34.79308
718.117	36.74259
718.312	48.42304
718.506	46.22995
718.701	67.69824
718.895	76.38115
719.089	50.26971
719.284	61.86284
719.478	33.23746
719.673	37.48974
719.867	56.35876
720.062	49.23097
720.256	48.20577
720.45	51.81077
720.645	33.14235
720.839	45.86328
721.033	51.28804
721.228	38.31159
721.422	45.51019
721.616	38.46102
721.81	38.27763
722.005	51.83114
722.199	48.42983
722.393	39.75147
722.587	37.02108
722.781	59.41974
722.975	49.67227
723.169	53.45357
723.364	48.11072
723.558	33.9983
723.752	45.00092
723.946	59.4401
724.14	37.36069
724.334	51.675
724.528	45.85649
724.722	50.23577
724.916	54.7433
725.11	51.03007
725.304	44.31509
725.498	60.36986
725.692	41.17768
725.885	53.92195
726.079	58.70713
726.273	45.78859
726.467	37.54408
726.661	47.39781
726.855	41.46292
727.048	69.35364
727.242	37.65276
727.436	49.04087
727.63	46.92252
727.823	51.17264
728.017	34.3855
728.211	50.92145
728.405	47.43854
728.598	52.87657
728.792	35.65577
728.986	57.20718
729.179	42.59024
729.373	45.5034
729.566	40.09105
729.76	49.01372
729.953	35.85955
730.147	66.34807
730.34	49.40749
730.534	77.50701
730.727	47.47928
730.921	61.71355
731.114	46.91573
731.308	54.28851
731.501	46.10093
731.695	45.34723
731.888	45.47624
732.081	49.82163
732.275	45.70711
732.468	54.91978
732.661	43.02486
732.855	44.11816
733.048	36.61353
733.241	37.99237
733.434	55.59177
733.628	59.58262
733.821	51.52565
734.014	60.11876
734.207	52.02801
734.4	43.44589
734.594	41.67345
734.787	51.98728
734.98	49.98457
735.173	51.62748
735.366	24.66968
735.559	65.35066
735.752	30.53357
735.945	33.02686
736.138	40.96036
736.331	40.3763
736.524	50.72457
736.717	45.44229
736.91	40.3695
737.103	53.84049
737.296	35.77125
737.489	57.91305
737.682	22.16882
737.875	35.64219
738.067	40.41705
738.26	55.02839
738.453	49.93026
738.646	56.69135
738.839	47.81198
739.031	49.3396
739.224	38.77345
739.417	50.26292
739.61	59.01932
739.802	45.89044
739.995	26.17825
740.188	54.75687
740.38	38.75987
740.573	49.21061
740.765	29.46009
740.958	22.57658
741.151	37.74106
741.343	41.81606
741.536	26.17145
741.728	39.67676
741.921	36.1856
742.113	30.51319
742.306	27.51685
742.498	39.73789
742.691	38.135
742.883	36.93277
743.076	32.3611
743.268	36.40296
743.46	48.61314
743.653	38.49498
743.845	41.95867
744.037	42.52233
744.23	34.32437
744.422	42.78718
744.614	27.44211
744.807	34.86781
744.999	34.93574
745.191	42.29144
745.383	29.08641
745.575	34.60288
745.768	46.97684
745.96	43.20821
746.152	41.13694
746.344	35.62181
746.536	46.7324
746.728	46.34538
746.92	48.19898
747.112	44.64103
747.304	37.76143
747.496	40.8517
747.688	30.87327
747.88	22.62415
748.072	52.57109
748.264	45.45587
748.456	33.27142
748.648	37.87011
748.84	31.09747
749.032	41.81606
749.224	40.9332
749.416	38.17575
749.608	46.11451
749.799	52.59145
749.991	37.69351
750.183	52.82226
750.375	30.09196
750.567	41.44933
750.758	14.59682
750.95	42.13524
751.142	29.84057
751.333	31.57304
751.525	39.98918
751.717	47.37065
751.908	50.582
752.1	31.02953
752.292	42.20994
752.483	39.28963
752.675	39.0655
752.866	50.9486
753.058	56.40628
753.249	46.75956
753.441	46.57624
753.632	24.70366
753.824	27.44211
754.015	39.25567
754.207	45.48303
754.398	54.75009
754.589	26.74903
754.781	33.90999
754.972	31.70212
755.164	45.44908
755.355	37.21805
755.546	52.15699
755.738	30.58792
755.929	40.42384
756.12	55.20487
756.311	61.08922
756.503	40.91961
756.694	41.4018
756.885	42.99769
757.076	67.04691
757.267	70.36446
757.458	66.44984
757.65	40.45779
757.841	50.26292
758.032	58.91752
758.223	59.0804
758.414	51.51886
758.605	54.68221
758.796	36.29428
758.987	57.86554
759.178	39.28963
759.369	36.13126
759.56	31.98745
759.751	41.98584
759.942	37.11617
760.133	44.26755
760.324	35.36368
760.514	49.25134
760.705	44.7361
760.896	42.87546
761.087	36.13805
761.278	42.82792
761.468	19.42303
761.659	46.77314
761.85	39.05192
762.041	31.55945
762.231	38.42027
762.422	38.46781
762.613	36.50485
762.803	39.43226
762.994	56.41306
763.185	31.11106
763.375	45.87686
763.566	46.69166
763.757	33.82847
763.947	33.60429
764.138	36.16522
764.328	60.81098
764.519	59.82694
764.709	50.3376
764.9	37.76823
765.09	42.54949
765.281	28.8554
765.471	28.84181
765.661	23.43287
765.852	44.41015
766.042	26.13068
766.232	27.90415
766.423	24.62891
766.613	39.85334
766.803	24.37748
766.994	45.27253
767.184	30.66945
767.374	65.75099
767.564	43.77184
767.755	45.34723
767.945	25.93362
768.135	32.58529
768.325	55.27953
768.515	45.54414
768.706	37.93124
768.896	44.64103
769.086	42.60382
769.276	43.89407
769.466	31.96707
769.656	32.59887
769.846	33.95075
770.036	52.34707
770.226	33.87602
770.416	46.67129
770.606	41.13014
770.796	51.34914
770.986	41.44254
771.176	41.63949
771.366	36.02258
771.555	38.14179
771.745	20.57167
771.935	43.34403
772.125	22.42707
772.315	32.31355
772.504	39.41188
772.694	25.01625
772.884	32.463
773.074	19.94638
773.263	34.88819
773.453	36.49806
773.643	41.21843
773.832	43.11314
774.022	37.58484
774.212	40.20651
774.401	19.64732
774.591	21.26491
774.781	22.18241
774.97	39.68355
775.16	18.68895
775.349	25.2405
775.539	22.79405
775.728	24.58814
775.918	35.67615
776.107	64.0818
776.297	83.773
776.486	149.1003
776.675	176.16516
776.865	133.03686
777.054	66.13773
777.243	53.1481
777.433	30.37731
777.622	54.44463
777.811	36.47768
778.001	40.90603
778.19	26.74903
778.379	37.99237
778.568	31.36922
778.758	22.69891
778.947	35.60822
779.136	43.37798
779.325	34.84063
779.514	24.41825
779.703	41.96546
779.892	22.52901
780.082	22.94357
780.271	24.22118
780.46	37.38107
780.649	46.78672
780.838	29.5756
781.027	33.96433
781.216	12.95842
781.405	32.68719
781.594	35.43841
781.783	45.82933
781.971	40.30159
782.16	38.85495
782.349	49.31923
782.538	27.93813
782.727	48.1243
782.916	24.9483
783.105	36.4573
783.293	33.12197
783.482	36.52523
783.671	43.22179
783.86	22.10085
784.048	26.45005
784.237	12.16299
784.426	33.40729
784.614	31.78364
784.803	35.40444
784.992	14.07336
785.18	29.5756
785.369	29.40574
785.557	28.29145
785.746	35.14631
785.935	36.6407
786.123	24.85316
786.312	27.04121
786.5	26.3753
786.689	24.66289
786.877	29.39215
787.065	39.60884
787.254	15.19504
787.442	32.56491
787.631	28.26427
787.819	37.42861
788.007	40.07068
788.196	47.01079
788.384	38.80741
788.572	48.32119
788.761	12.73407
788.949	25.51232
789.137	22.84842
789.325	28.33901
789.513	22.06687
789.702	34.83384
789.89	37.11617
790.078	27.65954
790.266	25.58706
790.454	37.78181
790.642	23.99012
790.83	46.22316
791.018	21.94454
791.207	31.26732
791.395	42.8415
791.583	26.49082
791.771	38.51536
791.959	35.75087
792.146	20.38137
792.334	27.73429
792.522	23.44646
792.71	35.36368
792.898	19.40943
793.086	45.15031
793.274	24.06488
793.462	51.02328
793.65	42.50196
793.837	22.56299
794.025	37.46258
794.213	28.02646
794.401	40.2948
794.588	27.91774
794.776	7.63465
794.964	17.71016
795.151	22.47464
795.339	39.35755
795.527	15.91561
795.714	14.01217
795.902	19.83083
796.089	24.23477
796.277	17.24114
796.465	48.82361
796.652	28.25068
796.84	29.67072
797.027	28.50208
797.215	27.81582
797.402	33.1899
797.59	49.5297
797.777	14.95711
797.964	15.92921
798.152	11.82305
798.339	38.77345
798.526	19.06279
798.714	16.34387
798.901	19.57935
799.088	40.67512
799.276	20.1163
799.463	28.59041
799.65	18.3491
799.837	38.78703
800.025	5.92783
800.212	33.23066
800.399	21.67949
800.586	16.75852
800.773	11.06837
800.96	19.8988
801.148	26.57236
801.335	32.2524
801.522	31.09068
801.709	13.0672
801.896	26.19863
802.083	22.2028
802.27	13.65186
802.457	28.50888
802.644	17.03722
802.831	36.4573
803.018	17.3431
803.204	27.92454
803.391	17.32271
803.578	26.46364
803.765	21.01344
803.952	30.88006
804.139	11.5035
804.326	36.00899
804.512	29.16114
804.699	37.93803
804.886	22.42027
805.073	24.62212
805.259	24.60173
805.446	61.65926
805.633	30.01043
805.819	42.99769
806.006	25.41039
806.192	35.70332
806.379	7.85225
806.566	15.41258
806.752	31.07709
806.939	23.60956
807.125	9.45016
807.312	26.68788
807.498	21.68628
807.685	43.75147
807.871	20.91829
808.058	33.86923
808.244	19.45021
808.43	36.72221
808.617	25.95401
808.803	32.51735
808.99	9.13058
809.176	27.28583
809.362	19.8988
809.549	29.54842
809.735	22.77367
809.921	8.97419
810.107	23.13385
810.293	25.49193
810.48	26.75583
810.666	29.90851
810.852	24.28913
811.038	28.04005
811.224	10.70122
811.41	29.38536
811.597	29.94928
811.783	14.16173
811.969	19.94638
812.155	7.98144
812.341	18.94044
812.527	25.85887
812.713	23.77266
812.899	26.33453
813.085	18.38309
813.271	33.17632
813.456	30.71022
813.642	22.65813
813.828	7.68225
814.014	41.42896
814.2	18.01604
814.386	19.77646
814.572	5.20018
814.757	35.0648
814.943	36.19919
815.129	32.80947
815.315	35.13273
815.5	33.9983
815.686	36.45051
815.872	18.08401
816.057	14.31809
816.243	35.18707
816.429	11.87744
816.614	23.84062
816.8	12.97882
816.985	37.59842
817.171	22.59017
817.356	39.02475
817.542	30.44525
817.727	34.3923
817.913	12.70008
818.098	27.22468
818.284	9.69494
818.469	21.67949
818.655	14.44726
818.84	33.35294
819.025	7.45105
819.211	44.61387
819.396	25.45795
819.581	17.14598
819.767	15.93601
819.952	36.02937
820.137	26.21222
820.322	39.57488
820.508	41.41538
820.693	34.23606
820.878	13.9034
821.063	33.77412
821.248	33.65185
821.433	18.08401
821.618	18.41707
821.804	17.80532
821.989	9.41616
822.174	30.12593
822.359	32.35431
822.544	16.50021
822.729	33.23066
822.914	27.26545
823.099	15.50775
823.284	26.72865
823.469	9.49095
823.653	33.14235
823.838	13.81502
824.023	22.14843
824.208	12.78846
824.393	42.48158
824.578	18.53262
824.762	9.48415
824.947	20.19106
825.132	24.43864
825.317	21.72706
825.501	24.70366
825.686	25.63463
825.871	23.58917
826.056	19.49099
826.24	36.86485
826.425	32.3611
826.609	20.01435
826.794	16.88768
826.979	33.04724
827.163	12.92443
827.348	21.2785
827.532	11.65988
827.717	17.11879
827.901	20.49691
828.086	33.27822
828.27	19.07638
828.455	27.52365
828.639	25.14537
828.823	27.02762
829.008	11.36752
829.192	21.82901
829.376	15.07948
829.561	26.76262
829.745	8.33503
829.929	10.35446
830.114	20.35418
830.298	44.90586
830.482	15.40578
830.666	31.49151
830.85	12.96522
831.035	32.38148
831.219	4.86695
831.403	15.92241
831.587	13.0468
831.771	44.97376
831.955	19.30748
832.139	16.11955
832.323	11.4899
832.507	14.79396
832.691	9.06259
832.875	19.98716
833.059	16.52741
833.243	11.47631
833.427	12.30576
833.611	28.24389
833.795	7.30145
833.979	23.65034
834.163	14.2977
834.346	34.74553
834.53	16.8265
834.714	27.90415
834.898	19.85802
835.082	35.22104
835.265	18.94044
835.449	16.09236
835.633	-3.40386
835.816	27.82262
836	5.86662
836.184	30.67625
836.367	26.75583
836.551	42.06733
836.735	26.49762
836.918	15.50775
837.102	20.83674
837.285	14.56962
837.469	23.03871
837.652	37.04824
837.836	18.50543
838.019	18.78411
838.203	29.41253
838.386	14.46085
838.569	2.2826
838.753	44.3083
838.936	9.88532
839.12	24.30952
839.303	17.53343
839.486	32.92496
839.669	19.81044
839.853	28.32542
840.036	14.658
840.219	20.89111
840.402	12.44853
840.586	22.21639
840.769	17.3567
840.952	10.76921
841.135	25.02984
841.318	15.40578
841.501	11.44231
841.684	7.30145
841.868	25.20652
842.051	23.67752
842.234	26.89852
842.417	21.12898
842.6	19.62013
842.783	22.96395
842.966	11.72107
843.149	48.48414
843.331	25.30166
843.514	62.54823
843.697	75.47907
843.88	88.76305
844.063	59.20256
844.246	46.95647
844.429	24.77841
844.611	28.15556
844.794	27.67313
844.977	32.57849
845.16	18.70255
845.342	23.84741
845.525	19.62693
845.708	12.84285
845.89	11.70067
846.073	16.06516
846.256	28.12158
846.438	21.99891
846.621	30.12593
846.803	29.49407
846.986	10.0757
847.168	28.76027
847.351	28.19633
847.533	23.16104
847.716	28.00608
847.898	31.09068
848.081	-3.02291
848.263	22.46105
848.446	15.60971
848.628	33.8013
848.81	7.85225
848.993	13.16238
849.175	10.58564
849.357	17.84611
849.539	11.20435
849.722	20.05513
849.904	6.15223
850.086	23.17463
850.268	34.46702
850.451	47.23485
850.633	25.30166
850.815	22.69891
850.997	34.04585
851.179	21.44162
851.361	13.4955
851.543	23.84062
851.725	15.31061
851.907	16.05837
852.089	25.29486
852.271	27.23827
852.453	32.52415
852.635	32.5717
852.817	10.41566
852.999	21.40763
853.181	10.78281
853.363	23.69111
853.545	21.11539
853.727	24.98907
853.908	17.30232
854.09	25.00266
854.272	31.3964
854.454	23.77266
854.636	25.93362
854.817	24.31631
854.999	20.18426
855.181	32.40866
855.362	16.90807
855.544	12.0882
855.726	20.22504
855.907	15.27662
856.089	13.03321
856.27	21.80862
856.452	8.45062
856.634	37.06862
856.815	19.07638
856.997	32.51056
857.178	11.88424
857.36	18.37629
857.541	8.27383
857.722	29.87454
857.904	11.15676
858.085	8.51862
858.267	17.32951
858.448	18.63458
858.629	18.17917
858.811	13.59068
858.992	21.50278
859.173	18.60739
859.354	14.59002
859.536	24.55416
859.717	6.21344
859.898	14.15494
860.079	14.56283
860.26	23.60277
860.441	20.28621
860.623	21.44162
860.804	18.44426
860.985	31.10426
861.166	21.11539
861.347	1.7521
861.528	0.36458
861.709	28.70592
861.89	21.64551
862.071	31.07029
862.252	12.28536
862.433	15.04549
862.614	49.01372
862.794	25.2473
862.975	16.63617
863.156	41.3203
863.337	2.79269
863.518	27.78185
863.699	14.76677
863.879	31.66136
864.06	10.76921
864.241	29.07961
864.422	7.02265
864.602	12.19698
864.783	30.68983
864.964	22.47464
865.144	6.27464
865.325	18.16558
865.506	18.13839
865.686	24.92791
865.867	13.63827
866.047	15.20864
866.228	7.85225
866.408	7.74345
866.589	17.02363
866.769	33.68581
866.95	12.87004
867.13	21.35326
867.31	12.04061
867.491	32.34751
867.671	7.39665
867.852	14.25691
868.032	22.87561
868.212	27.13634
868.393	28.49529
868.573	17.82572
868.753	11.27914
868.933	20.35418
869.113	7.68905
869.294	15.31061
869.474	8.8246
869.654	18.08401
869.834	20.92509
870.014	24.66968
870.194	4.79215
870.374	31.13144
870.555	15.07268
870.735	26.27338
870.915	8.70221
871.095	16.94206
871.275	15.90202
871.455	26.04234
871.634	7.02265
871.814	33.45484
871.994	14.45406
872.174	30.94121
872.354	27.56442
872.534	18.46465
872.714	6.63505
872.894	12.37375
873.073	16.04477
873.253	29.18832
873.433	5.4314
873.613	13.65186
873.792	12.70008
873.972	24.31631
874.152	9.42296
874.331	26.58595
874.511	24.38427
874.691	14.24331
874.87	4.66974
875.05	13.97138
875.229	7.52585
875.409	23.35132
875.588	19.21912
875.768	31.03632
875.947	34.36513
876.127	25.9608
876.306	8.39623
876.486	26.42967
876.665	18.66856
876.844	27.10237
877.024	31.03632
877.203	32.66681
877.382	5.98903
877.562	16.22151
877.741	9.51815
877.92	26.61993
878.1	16.71094
878.279	16.96925
878.458	10.33407
878.637	22.46105
878.816	19.81724
878.996	22.5426
879.175	13.57708
879.354	13.76064
879.533	18.75692
879.712	26.20543
879.891	9.60654
880.07	42.52233
880.249	14.06656
880.428	23.80664
880.607	17.92088
880.786	6.19984
880.965	32.70078
881.144	25.23371
881.323	6.00943
881.502	20.17067
881.68	10.70122
881.859	18.41707
882.038	15.81365
882.217	15.02509
882.396	1.57526
882.574	11.90463
882.753	10.29327
882.932	23.89498
883.111	14.6376
883.289	16.541
883.468	18.69575
883.647	23.79984
883.825	22.67173
884.004	20.29981
884.182	17.01683
884.361	20.77557
884.539	5.75782
884.718	28.93693
884.896	11.97942
885.075	17.70336
885.253	23.30375
885.432	19.33467
885.61	1.72489
885.789	17.8529
885.967	10.0825
886.145	34.1953
886.324	10.13009
886.502	15.09307
886.68	23.14065
886.859	12.40774
887.037	21.40763
887.215	23.20861
887.393	30.76457
887.572	12.39414
887.75	16.92846
887.928	29.78622
888.106	19.14435
888.284	27.02083
888.462	9.71533
888.64	16.66336
888.819	13.42072
888.997	32.38828
889.175	10.49725
889.353	9.17138
889.531	15.24263
889.709	20.7008
889.887	9.85132
890.065	35.14631
890.242	23.14744
890.42	31.53227
890.598	-1.94132
890.776	27.51685
890.954	10.21848
891.132	11.36072
891.309	12.55731
891.487	27.27904
891.665	11.66667
891.843	16.98964
892.02	0.55502
892.198	26.88493
892.376	16.27589
892.553	23.03191
892.731	29.26985
892.909	23.3853
893.086	24.58814
893.264	17.88009
893.441	15.06588
893.619	15.39218
893.797	12.44173
893.974	23.09308
894.151	16.8265
894.329	17.05082
894.506	2.59546
894.684	20.03474
894.861	18.98802
895.039	17.91408
895.216	9.72213
895.393	27.94492
895.571	3.29597
895.748	20.99305
895.925	36.0022
896.102	29.51445
896.28	11.45591
896.457	20.40855
896.634	9.59294
896.811	14.58322
896.988	8.60022
897.166	25.45116
897.343	2.80629
897.52	29.41933
897.697	6.70305
897.874	37.51691
898.051	16.52061
898.228	19.44342
898.405	-3.82564
898.582	0.98353
898.759	9.25297
898.936	30.19387
899.113	23.8678
899.29	34.92894
899.467	22.13483
899.643	27.25186
899.82	22.7125
899.997	38.80062
900.174	0.8679
900.351	21.31928
900.527	15.03869
900.704	18.02963
900.881	29.6911
901.058	14.9979
901.234	14.72598
901.411	26.21222
901.588	27.72749
901.764	20.80955
901.941	17.31592
902.117	19.30068
902.294	14.22972
902.471	39.31001
902.647	4.62893
902.824	15.35819
903	10.8712
903.176	22.62415
903.353	25.26768
903.529	22.06687
903.706	8.09704
903.882	17.90728
904.058	1.45283
904.235	10.19808
904.411	7.26065
904.587	18.88607
904.764	14.08016
904.94	12.81565
905.116	6.56705
905.292	24.24156
905.469	8.33503
905.645	18.61419
905.821	28.99128
905.997	11.85024
906.173	5.71701
906.349	21.73386
906.525	10.15729
906.702	20.61245
906.878	10.0621
907.054	12.70008
907.23	23.18822
907.406	9.38216
907.582	31.73609
907.757	14.35888
907.933	12.84965
908.109	19.85122
908.285	12.44853
908.461	22.1892
908.637	2.45263
908.813	12.47573
908.988	20.59206
909.164	23.00473
909.34	11.57829
909.516	15.80685
909.691	15.58252
909.867	24.77841
910.043	9.96691
910.219	19.95997
910.394	16.89447
910.57	30.13952
910.745	20.95228
910.921	25.86567
911.097	1.2828
911.272	7.70945
911.448	26.26658
911.623	9.85812
911.799	13.19637
911.974	9.14418
912.149	8.43023
912.325	22.94357
912.5	8.64781
912.676	16.35067
912.851	15.6437
913.026	23.76586
913.202	-4.08415
913.377	14.62401
913.552	5.4926
913.727	43.48663
913.903	9.25297
914.078	17.91408
914.253	15.92241
914.428	17.90728
914.603	-4.8869
914.779	11.91143
914.954	11.00038
915.129	23.02512
915.304	9.81732
915.479	17.0984
915.654	14.14814
915.829	27.66634
916.004	7.20625
916.179	30.37731
916.354	5.4042
916.529	34.26323
916.704	17.17317
916.879	27.04121
917.053	24.00371
917.228	14.86874
917.403	27.90415
917.578	39.09946
917.753	2.76549
917.927	8.49822
918.102	7.87265
918.277	13.31194
918.452	7.57345
918.626	15.63011
918.801	19.72209
918.976	12.5913
919.15	9.47056
919.325	25.35602
919.499	18.19956
919.674	17.56062
919.849	15.03869
920.023	36.89202
920.198	18.64138
920.372	21.78143
920.547	9.45696
920.721	5.32259
920.895	27.90415
921.07	14.05296
921.244	16.16713
921.419	29.66392
921.593	8.74301
921.767	22.61056
921.942	19.11717
922.116	3.60201
922.29	12.70688
922.464	23.82703
922.639	8.02224
922.813	12.56411
922.987	26.59954
923.161	18.16558
923.335	12.87004
923.509	20.7008
923.683	14.44046
923.858	10.8712
924.032	20.12989
924.206	32.63284
924.38	-2.62156
924.554	18.15198
924.728	10.97998
924.902	42.11487
925.075	25.90644
925.249	24.22797
925.423	19.08318
925.597	27.53724
925.771	9.35497
925.945	17.21395
926.119	25.77733
926.292	17.51984
926.466	18.66856
926.64	25.23371
926.814	18.66177
926.987	19.30068
927.161	8.77021
927.335	7.74345
927.508	24.45223
927.682	5.00297
927.856	-4.28823
928.029	23.57558
928.203	15.74567
928.376	23.0523
928.55	9.34817
928.723	8.51182
928.897	16.85369
929.07	18.51223
929.244	15.42617
929.417	6.93425
929.59	6.10463
929.764	10.37486
929.937	17.24114
930.111	36.12447
930.284	-4.28823
930.457	12.25137
930.63	3.534
930.804	18.8249
930.977	11.87744
931.15	22.79405
931.323	24.90073
931.497	14.59002
931.67	12.33295
931.843	28.43414
932.016	2.74508
932.189	20.5105
932.362	18.85888
932.535	36.17202
932.708	6.99545
932.881	14.48125
933.054	16.34387
933.227	31.81082
933.4	1.19438
933.573	14.41327
933.746	3.90805
933.919	21.50278
934.092	13.18957
934.264	15.6369
934.437	14.62401
934.61	13.95779
934.783	19.31428
934.956	15.50775
935.128	11.24514
935.301	31.79723
935.474	3.97606
935.646	11.57149
935.819	15.68449
935.992	14.83475
936.164	0.82029
936.337	23.92217
936.51	-0.54007
936.682	19.8988
936.855	7.77745
937.027	35.41123
937.2	25.17255
937.372	14.59002
937.545	6.15223
937.717	31.66136
937.889	9.96011
938.062	31.62059
938.234	17.52663
938.406	6.16584
938.579	17.27513
938.751	24.46582
938.923	16.58179
939.096	25.66181
939.268	18.92685
939.44	22.16202
939.612	10.58564
939.784	24.30272
939.957	17.96166
940.129	20.19786
940.301	9.09659
940.473	23.53481
940.645	20.27262
940.817	21.99211
940.989	5.92783
941.161	17.06441
941.333	13.35274
941.505	5.00297
941.677	10.79641
941.849	16.96925
942.021	21.2785
942.193	20.15708
942.365	0.50061
942.537	22.50862
942.708	16.10595
942.88	28.27786
943.052	2.44583
943.224	10.39526
943.395	12.0882
943.567	17.55382
943.739	8.66141
943.911	9.28017
944.082	14.37928
944.254	34.31757
944.425	-2.65557
944.597	12.23777
944.769	9.19178
944.94	19.79005
945.112	29.60277
945.283	30.99556
945.455	8.45742
945.626	22.15522
945.798	-0.09114
945.969	20.58526
946.14	12.13579
946.312	18.24714
946.483	4.07127
946.655	13.14878
946.826	17.19356
946.997	25.52591
947.168	0.83389
947.34	13.99178
947.511	21.40763
947.682	18.93365
947.853	5.22058
948.025	21.10859
948.196	7.14505
948.367	20.98626
948.538	5.90742
948.709	16.45943
948.88	10.21848
949.051	24.57455
949.222	9.20538
949.393	24.41145
949.564	4.88055
949.735	15.93601
949.906	11.18395
950.077	9.87852
950.248	14.95711
950.419	13.24396
950.59	0.48701
950.761	9.30057
950.931	21.26491
951.102	25.28807
951.273	10.20488
951.444	23.81343
951.614	19.55217
951.785	19.6949
951.956	13.55669
952.126	27.26545
952.297	38.50856
952.468	12.29216
952.638	7.42385
952.809	21.01344
952.98	1.73169
953.15	18.33551
953.321	1.14677
953.491	7.30825
953.662	15.24943
953.832	16.33027
954.002	9.05579
954.173	4.22769
954.343	11.5239
954.514	9.02859
954.684	4.3365
954.854	15.54853
955.025	10.13009
955.195	18.19277
955.365	18.97443
955.535	17.23435
955.706	19.6881
955.876	21.26491
956.046	20.53089
956.216	21.94454
956.386	8.8178
956.557	16.64296
956.727	-1.49237
956.897	22.41348
957.067	7.09065
957.237	17.59461
957.407	14.14814
957.577	17.20716
957.747	0.15372
957.917	9.79693
958.087	10.46325
958.257	27.81582
958.427	12.6185
958.596	3.44559
958.766	13.82182
958.936	-8.00971
959.106	26.86455
959.276	10.78961
959.445	1.89493
959.615	14.12774
959.785	22.28435
959.955	31.34884
960.124	15.46696
960.294	23.18822
960.464	6.34264
960.633	7.74345
960.803	6.79145
960.972	17.58781
961.142	6.19304
961.311	10.76241
961.481	8.41663
961.65	33.91678
961.82	11.20435
961.989	37.55087
962.159	9.96691
962.328	40.90603
962.498	15.35139
962.667	5.81902
962.836	-0.15236
963.006	26.30056
963.175	21.6523
963.344	19.4774
963.513	-2.52633
963.683	0.79308
963.852	8.26703
964.021	14.74637
964.19	10.69442
964.359	10.62643
964.528	7.23345
964.698	2.07856
964.867	6.02983
965.036	22.51542
965.205	26.47044
965.374	12.79526
965.543	14.67839
965.712	13.29835
965.881	10.58564
966.05	13.25756
966.219	2.05816
966.387	16.91487
966.556	14.90953
966.725	17.79853
966.894	14.71238
967.063	20.85033
967.232	20.97266
967.4	20.44254
967.569	-3.01611
967.738	33.38012
967.906	0.60264
968.075	33.57033
968.244	-8.14579
968.412	6.09103
968.581	13.61787
968.75	14.54243
968.918	7.64145
969.087	21.50958
969.255	9.73573
969.424	15.41937
969.592	17.64899
969.761	16.39825
969.929	7.72305
970.098	18.07721
970.266	-1.79847
970.434	11.33353
970.603	6.08423
970.771	25.2405
970.939	15.17465
971.108	33.40729
971.276	-5.91419
971.444	22.0193
971.612	-1.99574
971.781	14.85514
971.949	33.45484
972.117	25.28127
972.285	24.09885
972.453	10.59243
972.621	0.63665
972.789	7.81145
972.957	30.75098
973.125	13.34594
973.293	2.48664
973.461	24.35709
973.629	20.9115
973.797	14.06656
973.965	8.11064
974.133	16.18073
974.301	11.03437
974.469	11.73466
974.637	7.13825
974.805	30.90045
974.972	10.97318
975.14	32.48339
975.308	13.02641
975.476	9.77653
975.643	13.78103
975.811	17.56062
975.979	24.20079
976.146	19.31428
976.314	15.48735
976.482	9.71533
976.649	6.73025
976.817	13.31874
976.984	16.93526
977.152	7.96784
977.319	23.97653
977.487	23.76586
977.654	20.09591
977.822	9.40936
977.989	14.2909
978.156	10.13689
978.324	7.79785
978.491	14.69199
978.658	-0.52647
978.826	22.95716
978.993	14.50164
979.16	14.67159
979.328	13.18277
979.495	24.65609
979.662	6.32904
979.829	9.90571
979.996	13.61107
980.163	17.8529
980.33	-4.54675
980.498	19.67451
980.665	8.77701
980.832	7.39665
980.999	9.06259
981.166	18.38988
981.333	18.53262
981.5	14.22292
981.667	35.86635
981.833	0.8815
982	8.13784
982.167	14.27051
982.334	10.22528
982.501	9.34137
982.668	6.22704
982.834	7.41025
983.001	19.76966
983.168	36.0022
983.335	15.6641
983.501	10.0009
983.668	12.31936
983.835	16.16713
984.001	5.5198
984.168	13.86941
984.334	15.75927
984.501	20.27942
984.668	3.28237
984.834	8.76341
985.001	4.47932
985.167	19.32107
985.334	-1.34272
985.5	14.25011
985.666	2.94232
985.833	4.61533
985.999	6.32224
986.165	23.79305
986.332	14.88913
986.498	9.81732
986.664	9.53175
986.831	17.6014
986.997	5.61501
987.163	16.75852
987.329	3.5204
987.495	2.35742
987.662	14.18213
987.828	7.54625
987.994	20.27262
988.16	33.2986
988.326	15.0047
988.492	12.16299
988.658	22.20959
988.824	13.9034
988.99	8.26023
989.156	13.44111
989.322	27.36737
989.488	17.18676
989.654	-1.13185
989.82	18.86568
989.985	23.0523
990.151	27.52365
990.317	16.88768
990.483	6.80505
990.648	16.8129
990.814	22.97755
990.98	10.32727
991.146	14.05296
991.311	28.66515
991.477	24.88714
991.643	-1.64202
991.808	7.32185
991.974	-6.77143
992.139	25.71617
992.305	11.00718
992.47	2.53425
992.636	12.44173
992.801	29.89493
992.967	5.4178
993.132	10.20488
993.298	32.53094
993.463	16.66336
993.628	16.80611
993.794	5.60141
993.959	19.88521
994.124	5.08457
994.29	11.14996
994.455	19.4706
994.62	7.54625
994.785	35.12594
994.95	3.38438
995.116	28.18274
995.281	17.76454
995.446	17.67618
995.611	5.34979
995.776	14.6376
995.941	18.05682
996.106	11.55109
996.271	14.81435
996.436	15.6573
996.601	19.81044
996.766	15.63011
996.931	16.23511
997.096	19.34826
997.261	4.58813
997.425	24.92112
997.59	7.87265
997.755	18.16558
997.92	9.77653
998.085	16.23511
998.249	9.30057
998.414	8.53222
998.579	0.37818
998.744	11.85024
998.908	12.76806
999.073	28.17594
999.237	22.48823
999.402	16.01078
999.567	7.62105
999.731	17.83931
999.896	-2.05696
1000.06	20.34059
1000.225	8.72941
1000.389	25.87246
1000.553	20.7144
1000.718	20.00075
1000.882	-1.82568
1001.047	11.59869
1001.211	3.31637
1001.375	30.68304
1001.54	11.59869
1001.704	17.19356
1001.868	18.92685
1002.032	31.15182
1002.197	11.69387
1002.361	19.79685
1002.525	11.20435
1002.689	17.15278
1002.853	8.35543
1003.017	4.03727
1003.181	1.24879
1003.345	12.84965
1003.509	13.16918
1003.673	21.82221
1003.837	18.28793
1004.001	19.892
1004.165	4.22769
1004.329	23.43967
1004.493	7.53265
1004.657	15.22903
1004.821	-0.55368
1004.985	21.78143
1005.149	8.30103
1005.312	18.02284
1005.476	4.07807
1005.64	33.65864
1005.804	11.40832
1005.967	22.61056
1006.131	14.36568
1006.295	24.52018
1006.458	15.45336
1006.622	26.32094
1006.785	6.49905
1006.949	29.58239
1007.113	10.53124
1007.276	19.9056
1007.44	17.84611
1007.603	11.57829
1007.767	7.87265
1007.93	13.03321
1008.093	6.36984
1008.257	17.31592
1008.42	3.32317
1008.584	24.69687
1008.747	2.20779
1008.91	21.46201
1009.073	1.25559
1009.237	16.43224
1009.4	10.76921
1009.563	-1.22028
1009.726	7.46465
1009.889	42.27785
1010.053	22.86881
1010.216	16.03118
1010.379	13.42072
1010.542	34.50778
1010.705	16.2691
1010.868	31.91952
1011.031	10.41566
1011.194	22.86201
1011.357	12.92443
1011.52	13.41392
1011.683	3.75843
1011.846	27.34698
1012.009	15.22223
1012.171	19.66771
1012.334	17.33631
1012.497	29.8134
1012.66	2.22819
1012.823	10.21848
1012.985	18.27433
1013.148	21.72027
1013.311	15.09987
1013.473	14.89593
1013.636	4.75814
1013.799	29.74545
1013.961	14.81435
1014.124	15.18824
1014.286	11.37432
1014.449	9.72893
1014.612	18.73653
1014.774	14.62401
1014.936	6.57385
1015.099	1.96974
1015.261	-4.00251
1015.424	18.45785
1015.586	10.11649
1015.748	14.50164
1015.911	-5.58083
1016.073	44.69535
1016.235	12.02701
1016.398	11.29274
1016.56	25.86567
1016.722	3.45239
1016.884	5.70341
1017.047	33.47522
1017.209	7.32865
1017.371	9.98051
1017.533	9.89892
1017.695	29.53483
1017.857	13.8898
1018.019	34.31757
1018.181	14.12774
1018.343	22.53581
1018.505	15.52814
1018.667	-1.70324
1018.829	12.98562
1018.991	20.03474
1019.153	14.39287
1019.315	1.70449
1019.477	7.43745
1019.638	11.80265
1019.8	-1.22028
1019.962	19.11717
1020.124	3.41159
1020.285	21.31249
1020.447	11.78905
1020.609	16.2487
1020.77	6.75065
1020.932	39.71751
1021.094	6.76425
1021.255	11.56469
1021.417	26.27338
1021.578	3.10554
1021.74	15.68449
1021.901	19.08998
1022.063	6.79825
1022.224	23.20861
1022.386	20.21825
1022.547	19.71529
1022.709	12.11539
1022.87	24.45902
1023.031	4.52012
1023.193	9.87172
1023.354	12.54371
1023.515	21.08141
1023.676	13.29835
1023.838	16.58179
1023.999	14.16173
1024.16	24.1872
1024.321	13.74024
1024.482	17.53343
1024.644	23.29016
1024.805	13.15558
1024.966	5.11177
1025.127	11.14316
1025.288	7.10425
1025.449	36.41655
1025.61	7.04305
1025.771	34.17492
1025.932	25.61424
1026.093	27.5916
1026.253	11.58509
1026.414	2.78589
1026.575	-1.69644
1026.736	6.68265
1026.897	8.44382
1027.058	25.58706
1027.218	8.06984
1027.379	3.4796
1027.54	7.91344
1027.7	11.97942
1027.861	10.32727
1028.022	22.80765
1028.182	7.26745
1028.343	13.34594
1028.504	-0.01632
1028.664	10.53124
1028.825	11.4967
1028.985	6.79825
1029.146	3.58161
1029.306	7.89984
1029.466	23.15424
1029.627	27.95172
1029.787	11.23154
1029.948	17.38389
1030.108	8.04264
1030.268	27.82262
1030.429	6.53305
1030.589	18.48504
1030.749	10.47005
1030.909	19.96677
1031.07	11.56469
1031.23	18.13839
1031.39	0.0925
1031.55	22.77367
1031.71	-7.79879
1031.87	12.28536
1032.03	17.17317
1032.19	15.22223
1032.35	7.21305
1032.51	19.92599
1032.67	-0.955
1032.83	10.42246
1032.99	4.42491
1033.15	25.08421
1033.31	19.02201
1033.47	14.6512
1033.63	14.81435
1033.79	12.48932
1033.949	3.97606
1034.109	17.71016
1034.269	2.96952
1034.429	23.8678
1034.588	9.89212
1034.748	16.63617
1034.908	9.55215
1035.067	14.23651
1035.227	7.53265
1035.387	14.20932
1035.546	24.15322
1035.706	17.05082
1035.865	12.87004
1036.025	18.95404
1036.184	3.26196
1036.344	20.03474
1036.503	21.31928
1036.662	7.77745
1036.822	14.52883
1036.981	10.42926
1037.14	9.82412
1037.3	16.28949
1037.459	-0.14556
1037.618	29.20191
1037.778	8.02224
1037.937	21.99211
1038.096	11.00038
1038.255	20.98626
1038.414	4.64253
1038.573	41.88397
1038.733	15.71848
1038.892	17.79173
1039.051	18.19956
1039.21	26.81019
1039.369	6.26784
1039.528	26.34812
1039.687	9.00819
1039.846	23.43967
1040.005	12.0746
1040.164	17.82572
1040.322	-1.09104
1040.481	21.73386
1040.64	5.4586
1040.799	15.76606
1040.958	19.83083
1041.116	16.5342
1041.275	-6.08427
1041.434	8.49142
1041.593	4.98256
1041.751	26.87814
1041.91	21.31249
1042.069	4.3569
1042.227	13.81502
1042.386	31.27411
1042.544	2.20779
1042.703	17.27513
1042.861	11.02758
1043.02	11.14996
1043.178	22.44066
1043.337	32.13691
1043.495	13.78783
1043.653	13.12839
1043.812	1.92213
1043.97	18.83849
1044.129	13.04001
1044.287	14.10055
1044.445	9.84452
1044.603	9.64734
1044.762	-5.68288
1044.92	22.61736
1045.078	18.19277
1045.236	11.42871
1045.394	13.40712
1045.552	28.07402
