Data from deut_30ms_133_SR4014911__0__16-15-30-577.txt Node

Date: Sun Jul 13 16:15:30 EDT 2025
User: cryst
Spectrometer: SR401491
Trigger mode: 0
Integration Time (sec): 3.000000E-2
Scans to average: 133
Electric dark correction enabled: true
Nonlinearity correction enabled: true
Boxcar width: 0
XAxis mode: Wavelengths
Number of Pixels in Spectrum: 3648
>>>>>Begin Spectral Data<<<<<
344.912	-58.58402
345.129	-46.44115
345.347	-32.83737
345.565	-33.5092
345.783	14.57314
346.001	10.5819
346.219	5.32202
346.437	15.16197
346.654	19.19341
346.872	17.63978
347.09	6.81911
347.308	36.14657
347.526	9.81302
347.743	6.39371
347.961	29.51046
348.179	24.94104
348.397	18.29395
348.614	39.52938
348.832	47.31474
349.05	60.054
349.268	45.1746
349.485	61.62149
349.703	42.98528
349.921	66.92743
350.138	51.32499
350.356	59.29471
350.574	33.0739
350.791	60.21729
351.009	58.00469
351.227	58.8375
351.444	42.0948
351.662	57.64544
351.879	38.72049
352.097	53.66063
352.314	45.72191
352.532	60.10299
352.75	47.53528
352.967	48.22139
353.185	60.49487
353.402	49.21785
353.62	40.22386
353.837	62.87869
354.055	50.93298
354.272	66.36423
354.49	59.9397
354.707	81.99876
354.925	45.1746
355.142	61.48271
355.359	58.82117
355.577	76.12463
355.794	58.57623
356.012	77.01399
356.229	63.22155
356.446	55.60411
356.664	56.74727
356.881	62.23377
357.099	46.07316
357.316	57.93938
357.533	57.83323
357.751	57.54746
357.968	79.32293
358.185	75.13733
358.402	50.27144
358.62	69.25355
358.837	65.15618
359.054	41.89055
359.272	49.77323
359.489	56.23286
359.706	58.57623
359.923	69.12297
360.141	61.75211
360.358	58.51908
360.575	55.74293
360.792	63.18073
361.009	52.48467
361.226	59.62946
361.444	73.35846
361.661	56.87792
361.878	59.02529
362.095	57.55562
362.312	63.67869
362.529	65.11537
362.746	48.18872
362.963	45.5667
363.181	42.78104
363.398	76.10832
363.615	76.67947
363.832	57.00856
364.049	46.32638
364.266	80.58746
364.483	62.17662
364.7	52.06817
364.917	38.63061
365.134	60.84592
365.351	51.88034
365.568	75.61875
365.785	42.02944
366.002	55.30198
366.219	45.48502
366.436	75.01493
366.652	72.46898
366.869	58.50275
367.086	79.33109
367.303	60.40506
367.52	57.44948
367.737	75.78194
367.954	69.09032
368.171	61.84191
368.387	83.64655
368.604	61.49904
368.821	62.36439
369.038	55.66127
369.255	61.01737
369.471	56.05322
369.688	65.58064
369.905	80.16323
370.122	61.15615
370.339	64.12766
370.555	44.0963
370.772	53.56263
370.989	84.44594
371.205	57.11471
371.422	60.34791
371.639	52.06817
371.855	75.56979
372.072	59.13959
372.289	46.10583
372.505	84.7559
372.722	49.29135
372.939	68.40474
373.155	68.84547
373.372	59.19674
373.589	66.82948
373.805	60.64182
374.022	43.0343
374.238	40.48531
374.455	56.06955
374.671	72.9994
374.888	59.0906
375.104	47.05336
375.321	42.07846
375.537	59.50699
375.754	50.96565
375.97	69.00054
376.187	84.46225
376.403	69.42494
376.62	49.32402
376.836	51.28416
377.053	62.32357
377.269	58.32312
377.486	42.46243
377.702	42.93626
377.918	39.61108
378.135	57.26168
378.351	62.72358
378.568	57.70259
378.784	51.15349
379	64.73988
379.217	59.81724
379.433	58.17616
379.649	67.3437
379.865	63.50726
380.082	69.06583
380.298	46.78381
380.514	66.35607
380.731	59.39269
380.947	43.85123
381.163	57.58012
381.379	52.501
381.596	66.68256
381.812	69.30252
382.028	73.76647
382.244	52.7215
382.46	56.43699
382.676	88.06736
382.893	74.75382
383.109	48.87481
383.325	58.61705
383.541	74.77014
383.757	42.65033
383.973	56.98407
384.189	81.11772
384.405	55.05701
384.622	60.07849
384.838	72.19152
385.054	66.96824
385.27	83.71997
385.486	64.90313
385.702	38.25475
385.918	74.72118
386.134	51.18615
386.35	72.64035
386.566	75.39844
386.782	71.71004
386.998	66.9764
387.214	64.94395
387.43	58.24147
387.646	83.81785
387.861	70.09417
388.077	74.59062
388.293	73.89703
388.509	81.8764
388.725	56.53498
388.941	72.90148
389.157	56.12671
389.373	65.09088
389.588	70.77154
389.804	69.42494
390.02	80.22034
390.236	58.63338
390.452	49.20968
390.668	66.51932
390.883	71.69372
391.099	70.22475
391.315	71.55499
391.531	61.18065
391.746	57.64544
391.962	71.05717
392.178	63.1644
392.393	64.39704
392.609	83.85864
392.825	70.0452
393.041	51.717
393.256	78.80894
393.472	73.58694
393.687	76.63867
393.903	76.85897
394.119	74.71302
394.334	67.80077
394.55	87.70034
394.766	65.37657
394.981	88.46699
395.197	92.63422
395.412	92.17757
395.628	78.90685
395.843	89.70662
396.059	109.14194
396.274	89.92682
396.49	99.02655
396.705	83.14896
396.921	54.60789
397.136	80.62009
397.352	77.99307
397.567	68.6904
397.783	58.79668
397.998	87.87162
398.214	65.85
398.429	67.02538
398.644	92.08787
398.86	70.24923
399.075	77.41379
399.29	76.02672
399.506	56.58397
399.721	69.12297
399.936	59.42535
400.152	67.98033
400.367	68.76386
400.582	76.7937
400.798	77.57697
401.013	63.21338
401.228	81.89271
401.444	78.62945
401.659	59.94787
401.874	93.80028
402.089	76.0512
402.304	80.99536
402.52	56.65746
402.735	59.04978
402.95	56.46965
403.165	88.90739
403.38	88.94001
403.596	71.58763
403.811	80.91378
404.026	101.61892
404.241	72.54242
404.456	84.99245
404.671	90.08992
404.886	75.63507
405.101	60.5112
405.316	80.56298
405.532	85.98755
405.747	81.21562
405.962	79.33109
406.177	79.20055
406.392	61.13983
406.607	90.80757
406.822	87.6351
407.037	92.28358
407.252	103.31443
407.467	111.93708
407.682	103.44485
407.896	123.00888
408.111	103.7546
408.326	121.62413
408.541	144.89494
408.756	157.66194
408.971	159.10996
409.186	167.5688
409.401	154.04969
409.616	98.28466
409.83	70.20026
410.045	62.84603
410.26	60.7153
410.475	57.68626
410.69	70.91844
410.905	83.03476
411.119	37.96877
411.334	72.7954
411.549	68.3721
411.764	86.01202
411.978	85.7347
412.193	75.33316
412.408	65.64594
412.623	58.1435
412.837	78.90685
413.052	76.36942
413.267	79.40451
413.481	74.06839
413.696	59.1151
413.911	59.96419
414.125	59.74376
414.34	58.23331
414.554	58.76402
414.769	72.8362
414.984	62.56031
415.198	56.66562
415.413	55.79192
415.627	80.19587
415.842	65.25413
416.056	80.11429
416.271	68.33945
416.485	89.4375
416.7	76.5326
416.914	80.57114
417.129	67.98849
417.343	76.11648
417.558	70.46142
417.772	91.07668
417.987	73.69302
418.201	73.45638
418.415	54.4854
418.63	72.46082
418.844	63.58889
419.059	80.09797
419.273	67.64569
419.487	92.57714
419.702	75.46372
419.916	97.84441
420.13	66.02141
420.345	82.30875
420.559	63.32767
420.773	72.42818
420.988	67.84974
421.202	92.52006
421.416	67.13965
421.63	75.63507
421.845	74.70486
422.059	81.30536
422.273	54.03627
422.487	82.99397
422.701	90.1307
422.916	96.27901
423.13	64.13582
423.344	69.49023
423.558	61.06635
423.772	57.75975
423.986	63.22971
424.201	68.78018
424.415	78.3439
424.629	88.06736
424.843	68.65776
425.057	93.02563
425.271	55.53062
425.485	61.2133
425.699	57.58012
425.913	91.54151
426.127	67.22943
426.341	64.96027
426.555	76.58972
426.769	95.61858
426.983	82.94503
427.197	85.0006
427.411	78.43365
427.625	94.28137
427.839	60.56834
428.053	67.07435
428.267	46.79197
428.481	79.50241
428.695	57.19636
428.908	63.5644
429.122	76.63867
429.336	81.59904
429.55	75.31684
429.764	88.76875
429.978	108.25364
430.191	116.97249
430.405	146.65288
430.619	138.69239
430.833	178.67526
431.047	225.02938
431.26	297.36212
431.474	349.98256
431.688	393.55442
431.901	423.04013
432.115	498.74484
432.329	557.70421
432.543	597.0886
432.756	725.13928
432.97	741.68869
433.184	515.81981
433.397	246.5521
433.611	104.92833
433.824	89.66585
434.038	85.40844
434.252	66.88662
434.465	81.65614
434.679	68.69856
434.892	81.78666
435.106	51.87217
435.319	67.7518
435.533	77.3322
435.747	81.10957
435.96	54.8692
436.174	90.66893
436.387	84.813
436.601	79.60031
436.814	74.16631
437.027	64.49499
437.241	74.6559
437.454	68.95157
437.668	80.09797
437.881	98.96133
438.095	70.08601
438.308	83.8097
438.521	97.64058
438.735	76.59788
438.948	76.58156
439.161	76.38573
439.375	71.13062
439.588	90.1307
439.801	79.89401
440.015	83.51604
440.228	89.50274
440.441	96.80082
440.654	107.34085
440.868	101.78196
441.081	61.73579
441.294	92.38959
441.507	81.03615
441.721	74.66406
441.934	90.4569
442.147	78.08282
442.36	69.58817
442.573	85.50632
442.786	58.74769
443	94.37922
443.213	68.75569
443.426	83.07555
443.639	89.18468
443.852	95.27613
444.065	91.90031
444.278	80.28561
444.491	89.07866
444.704	88.46699
444.917	91.0196
445.13	89.93497
445.343	80.56298
445.556	121.31459
445.769	106.38728
445.982	86.57481
446.195	96.8742
446.408	87.19467
446.621	98.54554
446.834	81.49299
447.047	80.44877
447.26	86.60743
447.473	95.62674
447.686	91.81877
447.899	79.50241
448.111	95.70012
448.324	94.81137
448.537	98.2765
448.75	75.96145
448.963	81.7214
449.176	98.48032
449.388	92.71577
449.601	85.62866
449.814	83.7526
450.027	71.08982
450.239	95.79796
450.452	80.07349
450.665	69.70243
450.878	79.43715
451.09	90.79941
451.303	86.85212
451.516	84.66618
451.728	87.49645
451.941	74.6559
452.154	91.10115
452.366	94.30583
452.579	61.7766
452.792	102.84981
453.004	97.91778
453.217	78.57234
453.429	84.58461
453.642	86.68899
453.854	92.85439
454.067	104.88758
454.28	114.6586
454.492	77.72383
454.705	69.82485
454.917	78.58866
455.13	95.4392
455.342	100.78743
455.555	71.302
455.767	111.08146
455.979	83.92389
456.192	103.72199
456.404	80.30192
456.617	81.63982
456.829	83.44262
457.041	98.8798
457.254	81.85192
457.466	76.32862
457.679	78.21336
457.891	110.25025
458.103	89.79633
458.315	93.3518
458.528	69.30252
458.74	78.63761
458.952	81.86008
459.165	93.66982
459.377	63.47461
459.589	67.23759
459.801	91.04406
460.014	94.86845
460.226	95.62674
460.438	83.54051
460.65	61.40923
460.862	98.52924
461.075	74.29687
461.287	73.85623
461.499	44.17799
461.711	60.87858
461.923	65.1725
462.135	93.90628
462.347	78.63761
462.559	85.65313
462.771	90.44875
462.983	76.4918
463.196	85.10664
463.408	109.60646
463.62	71.79981
463.832	99.01024
464.044	89.95944
464.256	96.76005
464.468	69.327
464.68	90.80757
464.891	76.13279
465.103	77.52801
465.315	89.12759
465.527	78.4418
465.739	65.16434
465.951	84.46225
466.163	69.9391
466.375	65.94795
466.587	95.37397
466.799	73.46454
467.01	73.17893
467.222	76.65499
467.434	68.88628
467.646	69.59633
467.858	79.9756
468.069	81.72956
468.281	57.39232
468.493	56.30635
468.705	63.62155
468.916	77.13638
469.128	51.67617
469.34	71.97118
469.551	66.21731
469.763	53.19515
469.975	64.10317
470.186	78.8171
470.398	55.79192
470.61	68.04562
470.821	51.25966
471.033	65.47452
471.245	82.92056
471.456	51.15349
471.668	72.5669
471.879	70.69809
472.091	75.96961
472.302	83.30395
472.514	72.65667
472.725	83.53235
472.937	67.62937
473.148	66.05406
473.36	70.06968
473.571	89.95944
473.783	54.98352
473.994	76.02672
474.206	54.90186
474.417	64.87865
474.629	67.08251
474.84	96.31162
475.051	88.05105
475.263	64.99292
475.474	62.62562
475.685	81.60719
475.897	62.98481
476.108	89.62507
476.319	62.5848
476.531	65.56431
476.742	84.94351
476.953	86.57481
477.165	93.97967
477.376	76.98136
477.587	71.61211
477.798	77.83805
478.01	64.60927
478.221	89.24992
478.432	74.87622
478.643	78.65393
478.854	60.44588
479.065	119.2536
479.277	95.00706
479.488	95.28428
479.699	84.21755
479.91	82.88793
480.121	92.51191
480.332	86.20777
480.543	94.96629
480.754	65.34392
480.965	73.57878
481.176	84.56829
481.387	100.62439
481.598	88.36912
481.809	100.15157
482.02	155.12365
482.231	284.10714
482.442	595.82199
482.653	1202.26992
482.864	2036.23272
483.075	3208.20401
483.286	4648.41013
483.497	6323.03838
483.708	7642.99643
483.919	8720.23998
484.13	9744.472
484.341	11138.52277
484.551	13074.02678
484.762	14791.08391
484.973	15284.76848
485.184	10390.78619
485.395	3259.37257
485.605	885.82623
485.816	394.60337
486.027	204.05885
486.238	159.45162
486.449	169.51234
486.659	131.00647
486.87	119.1314
487.081	123.09847
487.291	109.23974
487.502	111.21184
487.713	83.56498
487.923	109.81834
488.134	91.81061
488.345	124.05961
488.555	96.44208
488.766	85.10664
488.976	107.1697
489.187	99.73581
489.398	88.7769
489.608	98.17867
489.819	92.80547
490.029	88.32834
490.24	105.46627
490.45	126.9591
490.661	99.06731
490.871	94.71352
491.082	74.19895
491.292	80.13876
491.503	94.40368
491.713	114.16972
491.924	97.51829
492.134	82.58611
492.344	83.6955
492.555	98.20313
492.765	103.453
492.975	105.29511
493.186	88.52408
493.396	116.01926
493.607	85.19636
493.817	109.39458
494.027	83.44262
494.237	89.95128
494.448	87.41489
494.658	104.81422
494.868	76.81002
495.078	91.22347
495.289	110.16061
495.499	88.18969
495.709	77.03847
495.919	90.92174
496.129	88.83399
496.34	78.14809
496.55	66.03774
496.76	95.52889
496.97	97.12694
497.18	84.57645
497.39	78.38469
497.6	96.63775
497.81	103.52636
498.021	97.54275
498.231	97.11879
498.441	98.13791
498.651	78.46628
498.861	80.46509
499.071	93.88182
499.281	107.27565
499.491	90.90543
499.701	98.80643
499.911	94.99891
500.121	92.56899
500.331	99.95592
500.54	131.23447
500.75	91.90847
500.96	101.89608
501.17	78.05018
501.38	86.46062
501.59	98.33357
501.8	90.31827
502.01	65.57247
502.219	94.84398
502.429	95.17829
502.639	122.82968
502.849	98.90426
503.059	92.05525
503.268	84.32359
503.478	94.5586
503.688	85.88967
503.898	86.54218
504.107	85.13927
504.317	129.67913
504.527	90.37535
504.736	97.77918
504.946	79.32293
505.156	106.45248
505.365	75.99408
505.575	95.58597
505.785	83.90758
505.994	111.72521
506.204	83.96468
506.413	100.48581
506.623	68.5843
506.832	83.62208
507.042	88.11629
507.251	104.31702
507.461	89.20099
507.67	89.674
507.88	70.51039
508.089	92.19388
508.299	91.53335
508.508	93.31919
508.718	65.72756
508.927	87.35779
509.137	104.34147
509.346	105.8412
509.555	85.64498
509.765	80.6364
509.974	148.22355
510.184	96.17302
510.393	76.0512
510.602	86.95815
510.812	95.96103
511.021	90.91358
511.23	107.09634
511.439	79.22503
511.649	72.22416
511.858	94.33845
512.067	89.2907
512.276	94.71352
512.486	159.64685
512.695	95.25982
512.904	70.64096
513.113	99.09177
513.322	86.53402
513.531	93.00932
513.741	101.9939
513.95	80.22034
514.159	84.94351
514.368	81.32983
514.577	86.93368
514.786	94.1346
514.995	87.75744
515.204	89.07866
515.413	65.82551
515.622	86.92552
515.831	84.89457
516.04	81.63982
516.249	63.85011
516.458	84.32359
516.667	91.32133
516.876	107.85429
517.085	74.08471
517.294	101.82272
517.503	77.87069
517.712	98.85534
517.921	87.07233
518.13	101.73305
518.339	98.43956
518.547	120.84212
518.756	74.43559
518.965	86.48509
519.174	86.69715
519.383	89.15206
519.591	68.92709
519.8	68.38026
520.009	75.13733
520.218	83.36921
520.426	78.40101
520.635	99.76842
520.844	95.65935
521.053	98.28466
521.261	103.76275
521.47	98.47217
521.679	81.99061
521.887	96.48284
522.096	82.79004
522.304	75.35764
522.513	63.82562
522.722	82.44743
522.93	88.71981
523.139	89.06235
523.347	66.59278
523.556	71.9467
523.764	74.86806
523.973	82.13744
524.182	75.12101
524.39	93.70243
524.598	73.22789
524.807	77.22613
525.015	76.64683
525.224	96.97204
525.432	79.77164
525.641	72.10991
525.849	81.8764
526.057	90.12254
526.266	95.29244
526.474	81.27272
526.683	76.08384
526.891	99.75211
527.099	78.88237
527.308	90.28565
527.516	67.84158
527.724	95.82242
527.932	63.46644
528.141	92.28358
528.349	97.15956
528.557	86.77055
528.765	72.19152
528.974	72.5669
529.182	79.85322
529.39	86.09358
529.598	67.00089
529.806	78.02571
530.015	88.16523
530.223	87.73297
530.431	67.83342
530.639	73.44822
530.847	58.63338
531.055	88.94001
531.263	84.6988
531.471	63.17257
531.679	61.55618
531.887	84.56829
532.095	89.92682
532.303	92.52006
532.511	74.70486
532.719	72.78724
532.927	69.2862
533.135	81.47667
533.343	105.65374
533.551	83.70365
533.759	76.91608
533.967	109.67166
534.175	88.68719
534.383	103.35519
534.591	90.59554
534.798	95.82242
535.006	68.31496
535.214	95.0886
535.422	69.51472
535.63	98.7086
535.837	66.47034
536.045	69.29436
536.253	79.73085
536.461	79.33925
536.668	75.83905
536.876	98.33357
537.084	88.61379
537.292	89.24177
537.499	89.90235
537.707	96.70298
537.915	91.48442
538.122	107.84614
538.33	101.02384
538.538	83.97284
538.745	83.29579
538.953	102.38518
539.16	78.52339
539.368	93.22134
539.575	80.99536
539.783	81.1993
539.99	101.81457
540.198	88.03473
540.406	95.50443
540.613	83.83417
540.82	72.20784
541.028	99.29558
541.235	82.4148
541.443	109.76945
541.65	122.11287
541.858	97.59982
542.065	80.07349
542.272	95.12121
542.48	116.16591
542.687	91.55782
542.895	99.14068
543.102	85.68576
543.309	93.45781
543.516	100.29016
543.724	79.47794
543.931	88.98079
544.138	97.29816
544.346	90.88912
544.553	86.7053
544.76	96.0018
544.967	84.42147
545.174	100.89341
545.382	78.40917
545.589	114.43046
545.796	93.29472
546.003	81.70509
546.21	92.27543
546.417	113.88454
546.624	94.61568
546.832	88.41806
547.039	79.9348
547.246	109.66351
547.453	94.25691
547.66	89.13575
547.867	99.84179
548.074	89.03788
548.281	82.51269
548.488	84.20939
548.695	81.12588
548.902	85.02507
549.109	76.36942
549.316	82.51269
549.523	72.5261
549.73	83.93205
549.936	75.41476
550.143	71.93854
550.35	69.7922
550.557	83.12449
550.764	70.06968
550.971	99.33634
551.178	77.56065
551.384	99.88255
551.591	95.26798
551.798	108.37588
552.005	89.66585
552.211	96.85789
552.418	85.04954
552.625	61.99702
552.832	88.36097
553.038	93.40073
553.245	89.4375
553.452	101.92054
553.658	82.45559
553.865	89.49459
554.072	93.48227
554.278	84.93535
554.485	110.11172
554.691	105.04244
554.898	76.58972
555.105	100.60809
555.311	83.10818
555.518	102.7683
555.724	90.25302
555.931	76.25518
556.137	73.46454
556.344	88.16523
556.55	96.99649
556.757	97.37969
556.963	84.89457
557.17	97.78734
557.376	90.13885
557.582	108.30253
557.789	80.17955
557.995	91.25609
558.202	90.62816
558.408	96.15671
558.614	74.8599
558.821	99.907
559.027	90.31827
559.233	97.89332
559.439	112.13265
559.646	96.44208
559.852	102.30366
560.058	104.30887
560.264	94.49337
560.471	91.67198
560.677	92.5853
560.883	111.74966
561.089	100.71407
561.295	92.83808
561.502	80.86483
561.708	94.12644
561.914	91.72091
562.12	103.68939
562.326	100.85265
562.532	108.03359
562.738	98.44771
562.944	96.1404
563.15	94.94998
563.356	80.01639
563.562	86.66452
563.768	96.11594
563.974	75.91249
564.18	100.02929
564.386	87.3007
564.592	88.89108
564.798	78.76815
565.004	115.16376
565.21	65.93979
565.416	96.6296
565.622	92.99302
565.828	110.85329
566.034	104.92018
566.239	94.23244
566.445	115.75854
566.651	116.83399
566.857	118.33303
567.063	120.80954
567.268	108.86486
567.474	132.74087
567.68	120.22302
567.886	130.32245
568.091	134.8497
568.297	134.23905
568.503	140.67052
568.708	139.88906
568.914	158.01175
569.12	170.65889
569.325	148.48396
569.531	153.86256
569.737	122.58531
569.942	129.63841
570.148	153.63474
570.353	179.62634
570.559	165.23474
570.765	160.19999
570.97	163.2665
571.176	182.40623
571.381	145.19607
571.587	130.90875
571.792	139.18897
571.998	152.10507
572.203	143.01479
572.408	187.89206
572.614	197.31705
572.819	178.30945
573.025	168.91872
573.23	163.4129
573.435	166.18628
573.641	158.06056
573.846	140.18211
574.051	162.03018
574.257	166.72303
574.462	180.20347
574.667	164.3645
574.873	160.28134
575.078	189.20037
575.283	175.66736
575.488	187.44511
575.694	204.76543
575.899	158.84151
576.104	172.48025
576.309	172.51278
576.514	194.37614
576.719	222.73255
576.925	263.94989
577.13	227.4802
577.335	218.10587
577.54	194.52238
577.745	173.79742
577.95	183.32468
578.155	165.95856
578.36	156.53113
578.565	171.31752
578.77	203.71774
578.975	226.96084
579.18	175.39907
579.385	200.7044
579.59	231.08302
579.795	185.67348
580	152.11321
580.205	172.31764
580.41	236.63241
580.615	348.4391
580.82	353.12581
581.024	303.79714
581.229	286.28568
581.434	278.37251
581.639	207.48599
581.844	179.10609
582.049	156.84028
582.253	202.97865
582.458	162.55887
582.663	141.97291
582.868	128.54717
583.072	146.26224
583.277	165.85284
583.482	206.22726
583.686	212.0251
583.891	191.69494
584.096	195.28607
584.3	230.80715
584.505	185.38903
584.71	209.36993
584.914	204.27001
585.119	198.94985
585.323	174.20394
585.528	149.46862
585.733	154.90398
585.937	177.85422
586.142	145.87159
586.346	195.01797
586.551	181.40648
586.755	186.20985
586.959	230.70166
587.164	219.13679
587.368	187.33134
587.573	214.84239
587.777	285.0871
587.982	897.42903
588.186	2127.47288
588.39	909.04398
588.595	556.66078
588.799	1137.1635
589.003	511.23042
589.208	218.79586
589.412	196.59404
589.616	169.92706
589.82	169.87827
590.025	142.86013
590.229	146.34362
590.433	136.07909
590.637	140.35305
590.842	170.43934
591.046	188.05459
591.25	163.00623
591.454	110.3073
591.658	149.20008
591.862	200.82624
592.067	300.082
592.271	243.40543
592.475	206.0892
592.679	205.63441
592.883	189.241
593.087	189.04598
593.291	170.34989
593.495	155.82333
593.699	151.7145
593.903	196.78088
594.107	230.35276
594.311	233.43597
594.515	214.33091
594.719	189.32226
594.923	179.86207
595.127	185.56783
595.33	182.56879
595.534	143.27525
595.738	188.03833
595.942	186.55118
596.146	155.85588
596.35	166.59291
596.553	164.74676
596.757	176.71609
596.961	220.95502
597.165	173.83807
597.369	130.09444
597.572	148.45141
597.776	141.30545
597.98	203.10048
598.183	233.07898
598.387	204.1157
598.591	171.90296
598.794	163.59997
598.998	181.48776
599.202	185.35652
599.405	220.16768
599.609	183.61727
599.812	208.89084
600.016	196.96773
600.22	214.90734
600.423	219.705
600.627	215.91402
600.83	157.9548
601.034	215.28079
601.237	234.76651
601.441	154.17174
601.644	172.91118
601.847	217.80552
602.051	182.56066
602.254	186.22611
602.458	205.06592
602.661	235.77249
602.864	176.22018
603.068	182.8045
603.271	155.76638
603.475	159.91529
603.678	160.36268
603.881	160.14305
604.084	129.66284
604.288	142.37176
604.491	180.78873
604.694	192.92182
604.897	139.49017
605.101	174.85435
605.304	179.65073
605.507	160.11865
605.71	128.88921
605.913	186.11233
606.116	169.63432
606.32	181.48776
606.523	158.45104
606.726	161.44453
606.929	167.65012
607.132	179.67511
607.335	173.83807
607.538	151.47853
607.741	136.64085
607.944	138.28535
608.147	123.66864
608.35	155.31078
608.553	142.52641
608.756	146.18899
608.959	146.40873
609.162	185.74662
609.365	169.82948
609.568	165.33234
609.771	120.93173
609.973	159.70379
610.176	160.09425
610.379	146.64475
610.582	125.28134
610.785	172.64287
610.988	138.04113
611.19	128.10741
611.393	132.7083
611.596	119.30248
611.799	126.05508
612.001	159.54923
612.204	131.56019
612.407	131.91033
612.609	131.21004
612.812	164.15304
613.015	153.38252
613.217	161.68855
613.42	126.1691
613.623	137.68292
613.825	152.14575
614.028	167.69078
614.23	141.53336
614.433	129.13351
614.636	133.34341
614.838	161.8675
615.041	169.26026
615.243	113.65639
615.446	98.74121
615.648	111.55409
615.85	116.08443
616.053	90.31011
616.255	127.96896
616.458	119.9379
616.66	115.88075
616.863	105.75154
617.065	117.28208
617.267	133.25385
617.47	122.08029
617.672	113.72973
617.874	101.90423
618.077	108.78336
618.279	108.57962
618.481	125.92476
618.683	94.90921
618.886	99.21405
619.088	140.62982
619.29	139.54716
619.492	115.0334
619.694	108.40033
619.897	120.82583
620.099	98.34988
620.301	70.53487
620.503	82.37401
620.705	99.85809
620.907	108.48998
621.109	86.29749
621.311	104.81422
621.513	118.81369
621.715	120.65476
621.917	126.34013
622.119	121.87665
622.321	110.16061
622.523	123.16364
622.725	102.88241
622.927	96.20563
623.129	103.21662
623.331	105.7923
623.533	88.0592
623.735	109.73685
623.937	111.21184
624.139	95.88765
624.341	101.33361
624.542	81.97429
624.744	73.82359
624.946	97.97485
625.148	96.55622
625.35	99.45047
625.551	82.38217
625.753	78.84158
625.955	90.62
626.156	108.71817
626.358	95.74904
626.56	89.47012
626.762	109.41903
626.963	106.02051
627.165	99.49939
627.366	95.61043
627.568	96.51546
627.77	97.72211
627.971	104.86312
628.173	99.76026
628.374	85.66129
628.576	90.34273
628.777	109.54127
628.979	81.99061
629.18	66.71521
629.382	79.53505
629.583	98.51293
629.785	102.29551
629.986	69.06583
630.188	80.70167
630.389	82.64321
630.591	103.30628
630.792	65.1725
630.993	69.13113
631.195	62.35622
631.396	78.44996
631.597	71.33464
631.799	82.77373
632	85.60419
632.201	77.01399
632.402	84.72327
632.604	97.34708
632.805	75.02309
633.006	88.83399
633.207	89.87789
633.409	101.77381
633.61	79.3474
633.811	91.19901
634.012	86.04464
634.213	101.61077
634.414	91.81877
634.615	85.47369
634.816	98.21128
635.017	99.35265
635.219	86.98261
635.42	90.68524
635.621	82.31691
635.822	113.68084
636.023	87.28439
636.224	90.32642
636.425	81.98245
636.626	84.99245
636.826	67.28656
637.027	102.61342
637.228	78.26231
637.429	77.70751
637.63	80.2285
637.831	72.65667
638.032	65.63777
638.233	65.93163
638.433	69.81668
638.634	90.37535
638.835	65.90714
639.036	87.2273
639.237	48.79313
639.437	57.87406
639.638	71.65292
639.839	62.37255
640.039	61.02553
640.24	91.29686
640.441	70.99189
640.641	53.58713
640.842	72.42001
641.043	67.31921
641.243	56.69828
641.444	52.7705
641.645	82.70031
641.845	59.98052
642.046	58.15983
642.246	59.43351
642.447	41.65363
642.647	66.34791
642.848	79.17608
643.048	84.54382
643.249	68.85363
643.449	73.66854
643.65	55.10601
643.85	52.97466
644.05	71.24487
644.251	57.88222
644.451	58.08634
644.651	59.68661
644.852	55.7266
645.052	63.89909
645.252	62.55215
645.453	55.74293
645.653	51.07998
645.853	65.70308
646.054	62.13581
646.254	58.72319
646.454	43.41009
646.654	47.03702
646.854	67.7518
647.055	76.04304
647.255	42.78104
647.455	84.54382
647.655	71.68556
647.855	79.39635
648.055	57.75158
648.255	58.51908
648.455	73.91335
648.655	66.20915
648.856	61.28678
649.056	72.59955
649.256	69.71875
649.456	62.02968
649.656	60.72346
649.856	77.82989
650.055	63.8746
650.255	90.70155
650.455	72.37921
650.655	92.87886
650.855	98.53739
651.055	131.00647
651.255	110.43768
651.455	127.26858
651.655	106.04496
651.854	111.26073
652.054	80.46509
652.254	109.62276
652.454	136.2175
652.654	123.97001
652.853	187.55075
653.053	236.97313
653.253	434.26715
653.452	1225.989
653.652	4868.3273
653.852	12721.03486
654.051	25178.04509
654.251	43469.5884
654.451	62951.22837
654.65	63457.59618
654.85	63457.59618
655.049	63457.59618
655.249	63457.59618
655.449	63457.59618
655.648	63457.59618
655.848	63457.59618
656.047	57400.2075
656.247	22103.41109
656.446	8755.86116
656.645	6553.4934
656.845	4504.69936
657.044	3182.89246
657.244	2125.69416
657.443	1592.97861
657.643	1260.6366
657.842	1059.81549
658.041	919.02729
658.241	850.78831
658.44	732.78032
658.639	697.22717
658.839	646.32764
659.038	610.6494
659.237	554.42934
659.436	520.23978
659.636	520.43263
659.835	490.8795
660.034	465.76619
660.233	450.80597
660.432	403.83253
660.631	414.25227
660.831	404.80046
661.03	373.51249
661.229	391.0368
661.428	367.72261
661.627	348.96437
661.826	346.4753
662.025	331.40713
662.224	304.23419
662.423	300.64051
662.622	276.97918
662.821	290.33458
663.02	297.50783
663.219	265.96787
663.418	289.06329
663.617	276.96298
663.816	271.93994
664.015	241.41019
664.214	242.19695
664.412	235.64269
664.611	245.70059
664.81	233.42785
665.009	250.45253
665.208	219.8917
665.406	207.19365
665.605	220.16768
665.804	212.63405
666.003	204.59488
666.201	190.58175
666.4	188.59904
666.599	193.8318
666.798	185.48656
666.996	196.12285
667.195	174.39906
667.394	176.74048
667.592	195.69228
667.791	179.36622
667.989	179.56131
668.188	176.39091
668.386	196.43156
668.585	163.59997
668.783	176.69984
668.982	182.73135
669.18	177.55343
669.379	165.69832
669.577	144.06476
669.776	142.52641
669.974	170.12221
670.173	168.4552
670.371	151.26697
670.57	153.20351
670.768	144.05662
670.966	171.27686
671.165	167.16218
671.363	146.00994
671.561	155.54672
671.76	166.49532
671.958	171.04106
672.156	158.45917
672.354	144.15429
672.553	139.66926
672.751	126.32384
672.949	137.03977
673.147	141.59848
673.345	129.11723
673.543	140.6054
673.742	122.31651
673.94	112.59711
674.138	118.24342
674.336	128.56346
674.534	127.11384
674.732	132.14647
674.93	140.37747
675.128	108.59592
675.326	119.30248
675.524	115.42449
675.722	137.21888
675.92	106.24057
676.118	106.59103
676.316	115.77483
676.514	121.46936
676.712	89.00526
676.91	122.52015
677.108	113.55862
677.305	136.14423
677.503	112.02671
677.701	126.20168
677.899	102.76014
678.097	120.89914
678.295	101.32546
678.492	110.96737
678.69	125.60713
678.888	105.40107
679.085	132.86301
679.283	102.96393
679.481	89.69847
679.679	103.14326
679.876	92.21834
680.074	116.98064
680.271	90.37535
680.469	92.43036
680.667	109.70425
680.864	101.59447
681.062	103.06174
681.259	107.52015
681.457	81.51746
681.654	112.1245
681.852	79.51873
682.049	98.49663
682.247	88.00211
682.444	93.51489
682.642	97.46937
682.839	87.14574
683.037	93.81659
683.234	112.86601
683.431	91.1827
683.629	85.16374
683.826	88.88293
684.023	116.73622
684.221	115.90519
684.418	110.95922
684.615	114.97636
684.813	116.0274
685.01	119.34321
685.207	88.67904
685.404	69.81668
685.601	112.0919
685.799	101.82272
685.996	92.57714
686.193	92.01448
686.39	84.38069
686.587	89.32332
686.784	98.28466
686.981	90.9462
687.179	99.89885
687.376	61.7766
687.573	94.71352
687.77	91.67198
687.967	82.87977
688.164	86.94999
688.361	86.39537
688.558	86.16699
688.755	75.80642
688.952	101.0809
689.148	91.67198
689.345	77.43011
689.542	83.50788
689.739	76.08384
689.936	74.88438
690.133	78.41733
690.33	77.71567
690.526	79.20871
690.723	111.33407
690.92	90.73417
691.117	75.65954
691.314	62.1603
691.51	79.4861
691.707	81.46851
691.904	75.03941
692.1	100.04559
692.297	84.91904
692.494	66.49483
692.69	113.52602
692.887	94.2406
693.084	90.00021
693.28	69.62081
693.477	73.91335
693.673	67.9232
693.87	78.99659
694.066	63.17257
694.263	81.41956
694.459	69.39229
694.656	87.89609
694.852	79.64111
695.049	85.66945
695.245	83.7526
695.442	76.22255
695.638	60.5112
695.834	76.45917
696.031	77.81358
696.227	76.26334
696.423	79.33109
696.62	91.78615
696.816	91.58228
697.012	72.42818
697.209	77.93596
697.405	90.49768
697.601	82.39033
697.797	77.43011
697.994	67.25391
698.19	64.69906
698.386	78.63761
698.582	90.80757
698.778	63.4093
698.974	69.77588
699.17	53.56263
699.367	72.33025
699.563	80.57114
699.759	56.59213
699.955	59.67028
700.151	73.30134
700.347	68.08643
700.543	74.18263
700.739	92.25912
700.935	62.29092
701.131	67.77628
701.327	72.98308
701.523	88.39359
701.718	60.1683
701.914	68.78834
702.11	88.61379
702.306	68.00482
702.502	72.18336
702.698	55.65311
702.894	71.52234
703.089	52.66433
703.285	58.48642
703.481	57.8414
703.677	75.34132
703.872	51.21882
704.068	57.89039
704.264	53.19515
704.459	41.52291
704.655	48.39291
704.851	55.33465
705.046	46.43257
705.242	47.77215
705.438	35.72165
705.633	65.09088
705.829	56.93507
706.024	79.12713
706.22	83.48341
706.415	81.91719
706.611	60.30709
706.806	83.64655
707.002	62.47868
707.197	76.95688
707.393	65.9806
707.588	56.94324
707.784	64.99292
707.979	61.05002
708.174	41.5801
708.37	59.36003
708.565	54.20776
708.76	55.71027
708.956	58.86199
709.151	57.62911
709.346	53.11349
709.542	62.0705
709.737	49.11167
709.932	60.56834
710.127	64.76437
710.322	59.98869
710.518	47.26573
710.713	60.44588
710.908	31.34945
711.103	60.7153
711.298	61.95621
711.493	51.668
711.688	50.23877
711.883	50.96565
712.078	78.62945
712.273	84.07888
712.468	43.76137
712.663	53.20332
712.858	61.67864
713.053	68.34761
713.248	60.02951
713.443	62.45419
713.638	35.29672
713.833	52.14167
714.028	54.42824
714.223	86.72162
714.418	78.33574
714.613	54.68138
714.807	82.64321
715.002	56.1512
715.197	54.42007
715.392	33.08207
715.587	41.12258
715.781	64.15215
715.976	33.8421
716.171	68.78018
716.365	53.06449
716.56	60.96022
716.755	40.64871
716.949	53.11349
717.144	53.66063
717.339	54.77937
717.533	66.81316
717.728	66.32342
717.922	35.11694
718.117	47.75582
718.312	62.51949
718.506	50.89214
718.701	72.93412
718.895	87.5046
719.089	52.81133
719.284	65.03374
719.478	42.91175
719.673	36.39989
719.867	64.76437
720.062	68.02114
720.256	45.77909
720.45	51.21066
720.645	43.8839
720.839	61.80926
721.033	62.91134
721.228	48.58894
721.422	54.76304
721.616	51.85584
721.81	48.23772
722.005	68.42923
722.199	50.52462
722.393	44.83151
722.587	38.5489
722.781	63.0093
722.975	62.97665
723.169	65.89081
723.364	55.61228
723.558	53.60346
723.752	51.43116
723.946	80.84035
724.14	40.28105
724.334	58.29863
724.528	43.72052
724.722	58.75585
724.916	59.69477
725.11	57.5148
725.304	55.93073
725.498	61.80926
725.692	54.16693
725.885	75.69218
726.079	73.57878
726.273	55.45713
726.467	38.32012
726.661	48.46642
726.855	50.23877
727.048	69.26987
727.242	35.80337
727.436	60.69081
727.63	38.18938
727.823	70.12681
728.017	31.92155
728.211	48.15604
728.405	57.61278
728.598	54.08527
728.792	52.55
728.986	78.53155
729.179	58.03735
729.373	60.40506
729.566	56.92691
729.76	57.25352
729.953	39.34963
730.147	65.64594
730.34	57.58828
730.534	89.82895
730.727	68.3068
730.921	60.69897
731.114	66.6091
731.308	69.62081
731.501	57.55562
731.695	57.40049
731.888	61.09901
732.081	58.94364
732.275	58.09451
732.468	58.47009
732.661	60.22545
732.855	44.75799
733.048	40.73042
733.241	46.6041
733.434	55.69393
733.628	68.18438
733.821	58.96813
734.014	64.23378
734.207	68.55165
734.4	53.32581
734.594	48.36841
734.787	59.55598
734.98	54.49357
735.173	81.4522
735.366	27.09097
735.559	61.62149
735.752	35.14146
735.945	36.69406
736.138	38.21389
736.331	57.72709
736.524	70.00439
736.717	47.56795
736.91	44.68447
737.103	66.56013
737.296	49.83041
737.489	58.22515
737.682	30.09077
737.875	40.17484
738.067	53.08082
738.26	54.24042
738.453	61.05819
738.646	49.56088
738.839	52.24784
739.031	53.30948
739.224	48.46642
739.417	62.43786
739.61	65.81735
739.802	43.94109
739.995	33.39262
740.188	62.11948
740.38	37.0536
740.573	49.62622
740.765	40.2402
740.958	16.74027
741.151	48.79313
741.343	37.76449
741.536	35.72982
741.728	45.45234
741.921	45.25629
742.113	31.35762
742.306	38.5489
742.498	38.34463
742.691	52.795
742.883	39.1617
743.076	34.08727
743.268	33.8421
743.46	54.64055
743.653	36.58783
743.845	47.05336
744.037	33.51521
744.23	34.45501
744.422	43.97377
744.614	39.12085
744.807	37.56838
744.999	41.335
745.191	52.21517
745.383	41.50657
745.575	38.94927
745.768	51.61083
745.96	49.7814
746.152	52.17434
746.344	47.18405
746.536	49.4302
746.728	50.05909
746.92	48.70329
747.112	44.57828
747.304	44.16982
747.496	47.04519
747.688	25.25986
747.88	24.69579
748.072	59.7111
748.264	49.16067
748.456	35.19049
748.648	37.83803
748.84	38.75317
749.032	41.31049
749.224	47.98452
749.416	53.17882
749.608	52.02734
749.799	51.37399
749.991	44.26785
750.183	65.46636
750.375	26.19178
750.567	42.96077
750.758	20.73059
750.95	48.43375
751.142	36.9964
751.333	39.03914
751.525	40.06863
751.717	61.94804
751.908	68.54349
752.1	41.35951
752.292	41.44938
752.483	41.96408
752.675	35.52553
752.866	47.71498
753.058	71.09798
753.249	58.00469
753.441	43.91658
753.632	31.74175
753.824	36.75126
754.015	40.73859
754.207	58.2823
754.398	54.00361
754.589	32.3874
754.781	34.4305
754.972	41.2533
755.164	47.17588
755.355	38.63878
755.546	46.75113
755.738	29.41237
755.929	49.56905
756.12	60.09482
756.311	67.29472
756.503	52.23967
756.694	54.43641
756.885	44.92954
757.076	82.4148
757.267	71.29384
757.458	69.54736
757.65	54.85287
757.841	55.20399
758.032	74.55798
758.223	59.458
758.414	62.70725
758.605	53.96278
758.796	40.69774
758.987	65.89898
759.178	47.72314
759.369	37.88706
759.56	52.55
759.751	44.52109
759.942	47.25756
760.133	39.55389
760.324	48.80947
760.514	45.23995
760.705	56.09404
760.896	55.74293
761.087	33.50704
761.278	35.26403
761.468	29.72297
761.659	57.26985
761.85	48.89931
762.041	31.20233
762.231	54.47723
762.422	42.60131
762.613	58.99263
762.803	38.75317
762.994	79.71453
763.185	48.18872
763.375	50.1081
763.566	42.31538
763.757	31.80713
763.947	48.20505
764.138	40.12582
764.328	63.19706
764.519	58.82933
764.709	47.8865
764.9	43.4346
765.09	50.09993
765.281	39.68462
765.471	34.6348
765.661	36.06486
765.852	40.30557
766.042	45.36249
766.232	22.70917
766.423	24.0336
766.613	29.8047
766.803	33.58059
766.994	52.17434
767.184	35.40295
767.374	66.19282
767.564	57.17186
767.755	43.5653
767.945	34.51222
768.135	47.60062
768.325	57.61278
768.515	58.44559
768.706	36.01583
768.896	56.4125
769.086	50.36128
769.276	47.60062
769.466	36.70223
769.656	42.40524
769.846	38.39365
770.036	42.25819
770.226	48.99732
770.416	42.96894
770.606	49.23418
770.796	70.94292
770.986	41.80068
771.176	47.66597
771.366	41.72715
771.555	40.0768
771.745	35.5909
771.935	57.3515
772.125	35.03522
772.315	36.20378
772.504	55.47346
772.694	29.87827
772.884	42.51145
773.074	29.10995
773.263	35.81154
773.453	43.83489
773.643	50.48379
773.832	51.45566
774.022	49.24235
774.212	35.11694
774.401	24.77754
774.591	14.46683
774.781	17.23909
774.97	46.37539
775.16	27.43429
775.349	27.18089
775.539	17.06737
775.728	32.15039
775.918	47.42093
776.107	75.68402
776.297	95.14567
776.486	177.91112
776.675	193.07619
776.865	153.56152
777.054	73.29318
777.243	60.65815
777.433	52.78683
777.622	56.90241
777.811	41.52291
778.001	47.04519
778.19	36.85749
778.379	34.11996
778.568	41.65363
778.758	36.48161
778.947	40.79578
779.136	50.7778
779.325	47.6578
779.514	27.57325
779.703	49.03816
779.892	33.35176
780.082	21.20481
780.271	16.94471
780.46	38.6878
780.649	51.18615
780.838	33.55607
781.027	31.07156
781.216	21.12305
781.405	26.10186
781.594	46.52242
781.783	65.35208
781.971	53.99544
782.16	45.23995
782.349	53.53813
782.538	31.37397
782.727	47.15138
782.916	31.89703
783.105	36.882
783.293	30.29511
783.482	46.62044
783.671	55.30198
783.86	30.94079
784.048	27.20541
784.237	-0.99449
784.426	26.96835
784.614	39.78266
784.803	37.17617
784.992	9.56763
785.18	30.00904
785.369	43.8839
785.557	30.12347
785.746	26.90296
785.935	38.6061
786.123	17.39446
786.312	14.75306
786.5	29.91096
786.689	34.4305
786.877	38.16487
787.065	47.49444
787.254	11.15445
787.442	25.19446
787.631	28.45605
787.819	40.20752
788.007	46.84098
788.196	50.88398
788.384	45.60755
788.572	61.93172
788.761	14.25419
788.949	22.00606
789.137	28.74213
789.325	31.1206
789.513	23.29782
789.702	45.21545
789.89	39.34963
790.078	25.89749
790.266	26.46971
790.454	31.7581
790.642	19.25064
790.83	55.18766
791.018	34.02189
791.207	36.35903
791.395	33.39262
791.583	29.53498
791.771	45.77909
791.959	26.77217
792.146	22.57019
792.334	18.39207
792.522	24.49141
792.71	42.06212
792.898	34.6348
793.086	53.87295
793.274	33.04121
793.462	60.4867
793.65	55.39997
793.837	24.40148
794.025	45.11742
794.213	20.46077
794.401	41.89055
794.588	30.2379
794.776	8.22612
794.964	23.73111
795.151	25.13724
795.339	42.96894
795.527	29.89461
795.714	15.76713
795.902	26.00376
796.089	19.83936
796.277	14.88391
796.465	54.42824
796.652	38.22207
796.84	24.82659
797.027	33.83393
797.215	28.17813
797.402	35.51736
797.59	54.93452
797.777	17.51712
797.964	26.89478
798.152	16.72391
798.339	48.73596
798.526	11.88239
798.714	17.10825
798.901	27.26263
799.088	43.0343
799.276	19.55318
799.463	31.17781
799.65	13.71442
799.837	41.27781
800.025	12.50399
800.212	43.89207
800.399	28.77483
800.586	31.57012
800.773	25.78305
800.96	20.09283
801.148	34.90447
801.335	48.05803
801.522	39.70913
801.709	19.90477
801.896	24.59769
802.083	28.55413
802.27	13.29732
802.457	38.27926
802.644	18.28577
802.831	40.1585
803.018	27.94926
803.204	32.31385
803.391	28.27622
803.578	35.81971
803.765	21.96518
803.952	51.55367
804.139	18.32666
804.326	35.35392
804.512	22.85634
804.699	42.2827
804.886	19.55318
805.073	19.0544
805.259	31.92973
805.446	76.52444
805.633	28.25987
805.819	56.42883
806.006	43.68784
806.192	33.19648
806.379	21.85889
806.566	22.61924
806.752	27.94108
806.939	33.91565
807.125	11.21988
807.312	35.86874
807.498	25.45606
807.685	39.61925
807.871	17.13279
808.058	33.76855
808.244	29.10178
808.43	38.33646
808.617	21.3438
808.803	44.94588
808.99	22.12052
809.176	38.14036
809.362	21.40104
809.549	27.23811
809.735	21.91612
809.921	19.07893
810.107	31.91338
810.293	32.52634
810.48	23.77199
810.666	31.61098
810.852	26.3471
811.038	16.83022
811.224	29.02004
811.41	35.22317
811.597	51.01465
811.783	27.49151
811.969	16.80569
812.155	21.17211
812.341	18.9154
812.527	40.33008
812.713	28.51326
812.899	28.72578
813.085	26.33892
813.271	35.77068
813.456	35.45198
813.642	29.63306
813.828	25.51328
814.014	48.24589
814.2	21.44192
814.386	28.38248
814.572	10.51646
814.757	40.08497
814.943	43.72052
815.129	40.58335
815.315	26.83756
815.5	32.15039
815.686	34.31609
815.872	18.13859
816.057	14.5159
816.243	45.87711
816.429	21.4828
816.614	23.88644
816.8	16.35592
816.985	32.48547
817.171	31.53743
817.356	39.4967
817.542	30.45858
817.727	52.68883
817.913	4.17665
818.098	21.69537
818.284	12.83932
818.469	26.17543
818.655	13.34639
818.84	42.63399
819.025	9.85392
819.211	42.49511
819.396	46.06499
819.581	22.98715
819.767	22.41485
819.952	42.90359
820.137	36.40806
820.322	35.93411
820.508	59.79274
820.693	34.08727
820.878	24.31156
821.063	35.69714
821.248	37.02092
821.433	21.91612
821.618	19.06258
821.804	30.41771
821.989	13.04378
822.174	36.90652
822.359	37.19251
822.544	10.03387
822.729	27.53238
822.914	14.81849
823.099	19.94566
823.284	27.47516
823.469	25.92202
823.653	36.8248
823.838	34.36512
824.023	13.77985
824.208	20.72241
824.393	52.41934
824.578	22.41485
824.762	13.59175
824.947	19.87207
825.132	32.3874
825.317	23.75564
825.501	34.9535
825.686	26.15908
825.871	26.75582
826.056	28.9383
826.24	31.34128
826.425	36.89017
826.609	21.04129
826.794	18.49837
826.979	35.61542
827.163	21.36016
827.348	18.71915
827.532	11.85785
827.717	32.24846
827.901	25.88932
828.086	33.23735
828.27	19.42235
828.455	46.17935
828.639	36.52246
828.823	35.60725
829.008	16.54401
829.192	17.50077
829.376	23.71476
829.561	19.545
829.745	1.78758
829.929	8.10342
830.114	19.28335
830.298	55.00802
830.482	22.83181
830.666	41.31049
830.85	10.3038
831.035	34.25071
831.219	-4.52977
831.403	20.46895
831.587	8.82327
831.771	45.4115
831.955	31.82348
832.139	23.61666
832.323	22.29221
832.507	15.29281
832.691	11.02358
832.875	7.12997
833.059	13.28914
833.243	22.21045
833.427	22.24316
833.611	32.99217
833.795	14.27873
833.979	40.06046
834.163	22.63559
834.346	39.50487
834.53	15.56268
834.714	45.86894
834.898	19.95383
835.082	23.47768
835.265	36.69406
835.449	19.37329
835.633	16.25779
835.816	38.24658
836	9.39586
836.184	34.56942
836.367	28.57048
836.551	34.23437
836.735	31.85617
836.918	17.32087
837.102	17.72973
837.285	18.07317
837.469	14.00067
837.652	50.55729
837.836	27.82665
838.019	21.76896
838.203	24.00907
838.386	25.6032
838.569	11.91511
838.753	55.05701
838.936	17.98322
839.12	24.73666
839.303	22.07147
839.486	34.51222
839.669	11.8006
839.853	19.88024
840.036	22.7664
840.219	12.32405
840.402	5.37929
840.586	24.40966
840.769	23.68206
840.952	11.53887
841.135	34.04641
841.318	26.99288
841.501	14.47501
841.684	7.54717
841.868	30.67108
842.051	30.49127
842.234	8.94597
842.417	13.56721
842.6	21.76896
842.783	33.03304
842.966	18.76004
843.149	54.76304
843.331	23.78016
843.514	73.82359
843.697	85.43291
843.88	96.65406
844.063	57.53929
844.246	55.54695
844.429	21.50732
844.611	30.21338
844.794	25.12906
844.977	38.1567
845.16	32.82055
845.342	28.71761
845.525	25.6686
845.708	12.83932
845.89	22.36579
846.073	26.55146
846.256	18.88269
846.438	30.07443
846.621	36.84115
846.803	29.57585
846.986	0.96117
847.168	20.24819
847.351	39.92156
847.533	40.24837
847.716	24.43418
847.898	41.16343
848.081	-1.11723
848.263	17.8115
848.446	12.1523
848.628	39.3006
848.81	20.7633
848.993	21.88342
849.175	9.08502
849.357	7.30993
849.539	13.88617
849.722	12.00507
849.904	5.09295
850.086	31.1206
850.268	45.07658
850.451	52.07634
850.633	21.3111
850.815	11.21988
850.997	40.67323
851.179	22.89721
851.361	15.22739
851.543	21.54003
851.725	30.11529
851.907	24.95739
852.089	30.40136
852.271	21.50732
852.453	42.42158
852.635	38.53256
852.817	15.70171
852.999	25.86479
853.181	6.45916
853.363	19.76577
853.545	18.12223
853.727	24.099
853.908	10.70459
854.09	29.60854
854.272	44.29236
854.454	34.88813
854.636	28.22718
854.817	18.83363
854.999	24.50776
855.181	28.4397
855.362	21.35198
855.544	19.34059
855.726	23.10978
855.907	22.83998
856.089	15.09654
856.27	25.93837
856.452	17.62343
856.634	43.98193
856.815	20.25636
856.997	23.55943
857.178	12.99471
857.36	11.17081
857.541	0.78116
857.722	21.81801
857.904	24.99009
858.085	15.31735
858.267	37.38045
858.448	22.34127
858.629	22.83998
858.811	14.45047
858.992	25.67677
859.173	25.65225
859.354	13.85346
859.536	50.25511
859.717	15.98793
859.898	26.83756
860.079	19.12799
860.26	27.97378
860.441	27.32802
860.623	22.23498
860.804	8.1934
860.985	36.17926
861.166	11.35075
861.347	9.64125
861.528	5.48564
861.709	33.70317
861.89	20.47712
862.071	35.99131
862.252	20.9677
862.433	24.57316
862.614	59.47433
862.794	24.91651
862.975	19.67583
863.156	42.83823
863.337	13.43635
863.518	47.46177
863.699	20.33813
863.879	38.26292
864.06	21.06582
864.241	26.12638
864.422	17.59889
864.602	17.19821
864.783	30.03356
864.964	20.91047
865.144	13.22371
865.325	17.14096
865.506	28.24352
865.686	24.48323
865.867	20.2073
866.047	34.14447
866.228	12.88021
866.408	11.54705
866.589	19.63495
866.769	31.16147
866.95	15.01476
867.13	31.79896
867.31	21.38468
867.491	36.18743
867.671	2.30305
867.852	17.71337
868.032	31.44752
868.212	19.91295
868.393	37.92791
868.573	15.61175
868.753	11.0154
868.933	23.23241
869.113	11.04812
869.294	14.09881
869.474	21.89977
869.654	19.02169
869.834	25.84027
870.014	22.701
870.194	6.53278
870.374	38.63061
870.555	4.96205
870.735	14.38505
870.915	16.84658
871.095	23.9682
871.275	28.4397
871.455	38.81854
871.634	10.86817
871.814	34.00554
871.994	21.40104
872.174	24.1971
872.354	29.98452
872.534	24.67126
872.714	18.00775
872.894	15.94704
873.073	23.49403
873.253	35.20683
873.433	5.71471
873.613	15.95522
873.792	13.80438
873.972	25.49693
874.152	6.14829
874.331	25.31708
874.511	34.07092
874.691	11.68609
874.87	3.55486
875.05	19.57771
875.229	21.58091
875.409	29.94365
875.588	8.92143
875.768	26.41249
875.947	41.13892
876.127	29.10178
876.306	21.70355
876.486	27.86752
876.665	22.25133
876.844	25.6032
877.024	37.38862
877.203	26.64955
877.382	7.3263
877.562	14.58132
877.741	10.09931
877.92	31.11243
878.1	32.24029
878.279	23.84557
878.458	15.09654
878.637	25.03914
878.816	22.4639
878.996	22.00606
879.175	18.16312
879.354	11.23624
879.533	25.34978
879.712	20.77147
879.891	12.78206
880.07	29.06091
880.249	19.56136
880.428	19.88024
880.607	23.24059
880.786	10.28744
880.965	35.81971
881.144	32.68979
881.323	-0.56079
881.502	24.10718
881.68	16.45406
881.859	7.53899
882.038	20.83688
882.217	21.87524
882.396	6.54097
882.574	10.52464
882.753	13.5345
882.932	26.54328
883.111	26.2817
883.289	28.22718
883.468	24.0009
883.647	32.62441
883.825	25.13724
884.004	29.69028
884.182	4.47118
884.361	19.33241
884.539	7.21995
884.718	34.25888
884.896	-1.01904
885.075	12.92928
885.253	33.8421
885.432	18.34301
885.61	7.31812
885.789	14.90027
885.967	10.86
886.145	37.38045
886.324	19.71671
886.502	25.93837
886.68	24.44236
886.859	5.8456
887.037	25.20263
887.215	24.34426
887.393	38.52439
887.572	1.89395
887.75	24.08265
887.928	29.46959
888.106	24.40148
888.284	44.60278
888.462	26.46971
888.64	18.47384
888.819	13.14193
888.997	34.43867
889.175	10.77002
889.353	13.4936
889.531	15.83255
889.709	20.69789
889.887	8.81509
890.065	36.98823
890.242	26.9847
890.42	46.27737
890.598	19.78213
890.776	41.36768
890.954	14.0252
891.132	22.56201
891.309	19.406
891.487	28.29257
891.665	11.2117
891.843	27.86752
892.02	7.01544
892.198	27.39342
892.376	19.47959
892.553	33.57241
892.731	28.16178
892.909	29.74749
893.086	20.25636
893.264	24.57316
893.441	19.97836
893.619	23.86192
893.797	8.70057
893.974	32.60806
894.151	26.6332
894.329	22.20228
894.506	9.87846
894.684	19.7576
894.861	13.33003
895.039	16.55219
895.216	5.6329
895.393	27.46699
895.571	-2.12376
895.748	17.25545
895.925	33.17197
896.102	27.18906
896.28	11.68609
896.457	11.98872
896.634	14.24601
896.811	14.18877
896.988	7.42446
897.166	35.91777
897.343	-0.96175
897.52	30.80185
897.697	14.38505
897.874	35.99949
898.051	15.70171
898.228	24.89199
898.405	2.42578
898.582	13.54267
898.759	8.71693
898.936	26.20813
899.113	25.43153
899.29	35.88508
899.467	34.80641
899.643	27.07462
899.82	30.12347
899.997	33.95651
900.174	-6.78049
900.351	24.92469
900.527	22.32492
900.704	26.12638
900.881	33.67865
901.058	19.22611
901.234	19.18523
901.411	33.18831
901.588	24.54864
901.764	28.16178
901.941	28.9383
902.117	22.92174
902.294	7.43264
902.471	28.55413
902.647	10.73731
902.824	15.14561
903	27.75308
903.176	16.90382
903.353	31.7254
903.529	18.08952
903.706	19.06258
903.882	18.22853
904.058	5.60835
904.235	3.61213
904.411	-1.12541
904.587	33.26186
904.764	11.19534
904.94	17.95869
905.116	14.4014
905.292	31.14512
905.469	24.85111
905.645	19.5123
905.821	32.22395
905.997	12.2668
906.173	5.69016
906.349	13.89435
906.525	12.61031
906.702	21.09034
906.878	4.04575
907.054	23.06073
907.23	10.06659
907.406	16.38863
907.582	35.72165
907.757	24.01725
907.933	16.51948
908.109	33.15562
908.285	25.52963
908.461	35.00253
908.637	10.09113
908.813	23.79652
908.988	19.00534
909.164	24.55681
909.34	19.49594
909.516	15.99611
909.691	18.44114
909.867	32.91862
910.043	14.08245
910.219	26.91931
910.394	26.83756
910.57	36.34269
910.745	28.39065
910.921	35.17414
911.097	1.73849
911.272	6.49188
911.448	25.05549
911.623	19.7903
911.799	0.08565
911.974	8.68421
912.149	16.2905
912.325	27.94926
912.5	9.8621
912.676	9.46948
912.851	9.55127
913.026	25.52963
913.202	-3.93234
913.377	13.28914
913.552	-0.38077
913.727	47.04519
913.903	15.59539
914.078	23.05255
914.253	26.29805
914.428	22.41485
914.603	-10.37385
914.779	19.34059
914.954	14.31962
915.129	34.68383
915.304	21.30292
915.479	19.12799
915.654	16.05335
915.829	23.08525
916.004	9.87028
916.179	38.85939
916.354	3.33396
916.529	23.89462
916.704	7.66987
916.879	27.75308
917.053	34.20985
917.228	12.3813
917.403	14.90845
917.578	38.47536
917.753	15.61993
917.927	5.83742
918.102	13.0765
918.277	10.32015
918.452	16.60125
918.626	15.15379
918.801	25.20263
918.976	19.46324
919.15	6.76184
919.325	32.04415
919.499	24.61404
919.674	27.47516
919.849	12.89657
920.023	23.28146
920.198	7.3672
920.372	21.43374
920.547	28.02283
920.721	11.956
920.895	18.48202
921.07	19.34059
921.244	24.84294
921.419	29.15899
921.593	8.0298
921.767	35.06791
921.942	24.04177
922.116	4.17665
922.29	5.54291
922.464	19.55318
922.639	1.53393
922.813	11.87421
922.987	25.19446
923.161	9.24044
923.335	6.86819
923.509	17.77061
923.683	12.97835
923.858	11.77606
924.032	40.60786
924.206	29.61671
924.38	-2.5002
924.554	24.50776
924.728	17.94234
924.902	46.27737
925.075	23.9355
925.249	30.04991
925.423	33.9892
925.597	25.65225
925.771	13.41182
925.945	12.6921
926.119	34.40598
926.292	26.27352
926.466	15.79166
926.64	24.29521
926.814	19.50412
926.987	7.17905
927.161	-0.11074
927.335	11.87421
927.508	23.55943
927.682	2.01668
927.856	7.80075
928.029	27.49968
928.203	25.80757
928.376	31.89703
928.55	2.47487
928.723	13.68171
928.897	25.07184
929.07	26.45336
929.244	24.58951
929.417	8.07888
929.59	9.70669
929.764	23.19153
929.937	17.55801
930.111	30.52396
930.284	5.51836
930.457	8.59423
930.63	16.88746
930.804	21.73625
930.977	15.669
931.15	19.70036
931.323	29.33881
931.497	9.00323
931.67	13.6081
931.843	30.9081
932.016	6.80274
932.189	25.40701
932.362	17.28816
932.535	29.07725
932.708	21.5482
932.881	13.58357
933.054	16.31504
933.227	33.34359
933.4	-5.8147
933.573	19.30788
933.746	8.61877
933.919	27.29533
934.092	22.78276
934.264	29.28977
934.437	12.59395
934.61	5.49382
934.783	14.38505
934.956	9.01141
935.128	19.44688
935.301	33.75221
935.474	9.27316
935.646	8.37337
935.819	14.08245
935.992	20.84506
936.164	-0.32349
936.337	20.64883
936.51	7.65351
936.682	24.0009
936.855	6.72094
937.027	43.86757
937.2	13.24825
937.372	20.91047
937.545	27.21358
937.717	17.46806
937.889	18.49837
938.062	28.07187
938.234	22.12052
938.406	7.61261
938.579	8.79873
938.751	38.67963
938.923	13.79621
939.096	39.19439
939.268	15.84891
939.44	20.9677
939.612	16.96924
939.784	30.6956
939.957	24.01725
940.129	22.60289
940.301	9.03595
940.473	16.56854
940.645	23.15066
940.817	34.56125
940.989	14.54043
941.161	16.41317
941.333	20.82871
941.505	17.77061
941.677	13.24825
941.849	18.42478
942.021	-2.42655
942.193	13.0356
942.365	-0.14347
942.537	28.79117
942.708	16.68303
942.88	32.30567
943.052	4.70844
943.224	12.16865
943.395	14.58132
943.567	21.72808
943.739	16.8384
943.911	2.31941
944.082	8.93779
944.254	36.20378
944.425	-4.18604
944.597	16.54401
944.769	20.67336
944.94	31.37397
945.112	35.05157
945.283	33.91565
945.455	5.42019
945.626	18.54744
945.798	5.8456
945.969	14.30326
946.14	24.05812
946.312	34.53673
946.483	11.11355
946.655	20.78782
946.826	12.50399
946.997	27.22993
947.168	-4.60343
947.34	3.40759
947.511	21.08217
947.682	23.42862
947.853	4.11938
948.025	26.68225
948.196	4.463
948.367	21.23751
948.538	0.65024
948.709	17.1655
948.88	10.222
949.051	32.91045
949.222	7.58807
949.393	22.60289
949.564	16.07788
949.735	22.58654
949.906	-0.88811
950.077	17.0919
950.248	23.4368
950.419	16.00428
950.59	11.67791
950.761	4.04575
950.931	18.19582
951.102	30.67925
951.273	14.26237
951.444	31.83165
951.614	31.39849
951.785	21.50732
951.956	18.03228
952.126	35.63176
952.297	48.3439
952.468	15.2601
952.638	14.29508
952.809	19.49594
952.98	6.50824
953.15	15.30917
953.321	7.4899
953.491	13.13375
953.662	6.02558
953.832	26.49424
954.002	8.91325
954.173	8.54515
954.343	14.15605
954.514	3.17032
954.684	3.55486
954.854	22.70917
955.025	18.13859
955.195	16.20055
955.365	23.51038
955.535	19.2997
955.706	20.39536
955.876	16.33139
956.046	26.57598
956.216	26.06916
956.386	18.42478
956.557	29.13447
956.727	-0.90447
956.897	26.60868
957.067	16.40499
957.237	18.71915
957.407	19.52047
957.577	25.51328
957.747	3.0476
957.917	13.13375
958.087	-0.56897
958.257	12.32405
958.427	4.95387
958.596	0.67479
958.766	18.53926
958.936	0.5275
959.106	30.62204
959.276	21.64632
959.445	3.56304
959.615	22.92992
959.785	19.95383
959.955	41.89872
960.124	9.26498
960.294	23.22424
960.464	6.68822
960.633	12.83114
960.803	7.69441
960.972	22.21863
961.142	-5.22543
961.311	26.91113
961.481	6.55733
961.65	29.92731
961.82	19.69218
961.989	36.30183
962.159	14.06609
962.328	51.30866
962.498	26.64955
962.667	8.30793
962.836	4.56936
963.006	24.55681
963.175	7.54717
963.344	22.39032
963.513	9.64943
963.683	-1.36272
963.852	2.8676
964.021	14.63857
964.19	7.8253
964.359	17.86874
964.528	13.67353
964.698	2.90851
964.867	10.89271
965.036	24.1317
965.205	22.98715
965.374	30.17251
965.543	9.60853
965.712	23.83739
965.881	16.92835
966.05	11.12173
966.219	15.79984
966.387	23.64936
966.556	16.38046
966.725	19.86389
966.894	17.76244
967.063	24.93286
967.232	22.02241
967.4	5.83742
967.569	4.8966
967.738	31.65185
967.906	4.45482
968.075	33.458
968.244	-3.21217
968.412	10.93361
968.581	9.64943
968.75	12.12776
968.918	11.06448
969.087	20.02742
969.255	11.35075
969.424	20.01925
969.592	35.03522
969.761	13.21553
969.929	16.74027
970.098	20.26454
970.266	-0.87174
970.434	11.72699
970.603	14.90845
970.771	27.54873
970.939	16.25779
971.108	33.00852
971.276	8.96233
971.444	25.02279
971.612	-11.8801
971.781	8.97051
971.949	49.52004
972.117	19.28335
972.285	32.40375
972.453	8.58605
972.621	11.35075
972.789	16.24962
972.957	29.15082
973.125	15.09654
973.293	3.75122
973.461	27.31985
973.629	28.70943
973.797	21.54003
973.965	17.28816
974.133	19.5123
974.301	16.47859
974.469	17.97504
974.637	12.47945
974.805	36.90652
974.972	-0.42168
975.14	33.90748
975.308	15.0393
975.476	12.70028
975.643	21.09852
975.811	11.16263
975.979	37.24971
976.146	22.55384
976.314	20.46077
976.482	22.27586
976.649	12.92928
976.817	28.18631
976.984	29.42872
977.152	14.54043
977.319	25.59503
977.487	34.42232
977.654	19.20158
977.822	10.66369
977.989	8.17704
978.156	16.97742
978.324	8.38155
978.491	15.04747
978.658	5.15022
978.826	25.88114
978.993	12.18501
979.16	31.67637
979.328	11.54705
979.495	24.22163
979.662	2.63033
979.829	12.47945
979.996	19.25882
980.163	22.44755
980.33	13.88617
980.498	14.69582
980.665	14.49954
980.832	6.5246
980.999	25.98741
981.166	13.73896
981.333	17.36175
981.5	30.99801
981.667	57.93938
981.833	5.52655
982	25.12089
982.167	6.25464
982.334	10.42649
982.501	18.22853
982.668	7.4899
982.834	9.79666
983.001	23.46132
983.168	40.14216
983.335	3.84121
983.501	14.28691
983.668	7.02362
983.835	7.58807
984.001	8.51243
984.168	17.43535
984.334	25.20263
984.501	21.09034
984.668	8.77419
984.834	9.70669
985.001	-11.80642
985.167	31.848
985.334	4.84752
985.5	12.81478
985.666	-0.58534
985.833	3.12123
985.999	8.61877
986.165	20.72241
986.332	27.11549
986.498	21.38468
986.664	12.99471
986.831	22.98715
986.997	14.16423
987.163	1.2721
987.329	5.00296
987.495	4.56117
987.662	20.01925
987.828	9.28952
987.994	17.10825
988.16	30.48309
988.326	11.98054
988.492	22.64377
988.658	20.73877
988.824	31.56195
988.99	-1.01904
989.156	9.61671
989.322	35.67262
989.488	19.39782
989.654	7.21995
989.82	17.41082
989.985	30.72829
990.151	21.44192
990.317	34.81458
990.483	1.01845
990.648	23.07708
990.814	8.14432
990.98	23.83739
991.146	31.59464
991.311	17.41082
991.477	25.16176
991.643	7.48172
991.808	17.72973
991.974	-5.33182
992.139	11.2935
992.305	12.29952
992.47	8.73329
992.636	18.62921
992.801	31.48022
992.967	15.84073
993.132	18.62103
993.298	43.18135
993.463	11.06448
993.628	14.13152
993.794	10.46739
993.959	31.10426
994.124	6.34463
994.29	9.91118
994.455	25.99559
994.62	12.10322
994.785	32.28116
994.95	5.37111
995.116	30.11529
995.281	17.60707
995.446	15.1129
995.611	-5.17632
995.776	17.17367
995.941	24.59769
996.106	8.56151
996.271	16.06153
996.436	25.6032
996.601	28.30891
996.766	10.90089
996.931	14.19695
997.096	22.15322
997.261	0.75661
997.425	28.02283
997.59	11.408
997.755	12.50399
997.92	16.65849
998.085	20.14189
998.249	12.59395
998.414	8.03798
998.579	-7.50076
998.744	15.3337
998.908	20.46077
999.073	39.78266
999.237	23.08525
999.402	8.67603
999.567	23.4695
999.731	19.83936
999.896	-2.1074
1000.06	32.8042
1000.225	7.43264
1000.389	24.36061
1000.553	25.97106
1000.718	35.22317
1000.882	-3.08941
1001.047	21.55638
1001.211	3.05578
1001.375	39.04731
1001.54	3.78394
1001.704	14.06609
1001.868	32.62441
1002.032	43.65517
1002.197	4.97841
1002.361	18.76004
1002.525	15.63628
1002.689	33.20466
1002.853	2.60578
1003.017	13.62446
1003.181	4.40573
1003.345	17.12461
1003.509	20.21548
1003.673	24.70396
1003.837	27.843
1004.001	11.96418
1004.165	14.67128
1004.329	19.15252
1004.493	13.10921
1004.657	17.9914
1004.821	-2.77844
1004.985	22.79911
1005.149	15.65264
1005.312	18.55561
1005.476	15.78348
1005.64	51.11265
1005.804	11.62066
1005.967	24.39331
1006.131	23.65753
1006.295	14.07427
1006.458	13.9516
1006.622	28.88108
1006.785	9.2568
1006.949	30.18068
1007.113	15.20286
1007.276	18.03228
1007.44	20.82871
1007.603	17.07555
1007.767	18.7355
1007.93	11.63702
1008.093	8.23431
1008.257	12.97017
1008.42	-0.7981
1008.584	24.71214
1008.747	16.56854
1008.91	20.72241
1009.073	-0.34804
1009.237	16.11059
1009.4	10.37741
1009.563	6.64731
1009.726	10.03387
1009.889	38.66329
1010.053	20.28907
1010.216	8.43881
1010.379	22.63559
1010.542	40.37093
1010.705	17.46806
1010.868	29.7148
1011.031	20.91864
1011.194	23.87827
1011.357	12.44673
1011.52	11.84967
1011.683	13.57539
1011.846	26.97653
1012.009	8.04616
1012.171	30.31963
1012.334	16.93653
1012.497	31.3331
1012.66	6.41007
1012.823	17.74608
1012.985	29.38785
1013.148	27.5569
1013.311	5.57563
1013.473	24.63039
1013.636	-3.57225
1013.799	37.5357
1013.961	25.14541
1014.124	18.40843
1014.286	17.85239
1014.449	18.60467
1014.612	44.0718
1014.774	17.86056
1014.936	11.00722
1015.099	14.46683
1015.261	0.7648
1015.424	33.04938
1015.586	19.01352
1015.748	20.30542
1015.911	-5.68375
1016.073	44.10447
1016.235	25.52963
1016.398	22.52113
1016.56	21.94883
1016.722	1.97577
1016.884	19.68401
1017.047	26.89478
1017.209	27.90839
1017.371	9.07684
1017.533	6.11557
1017.695	30.92445
1017.857	19.86389
1018.019	42.30721
1018.181	21.47462
1018.343	13.68171
1018.505	5.79652
1018.667	4.45482
1018.829	8.47153
1018.991	24.94104
1019.153	17.38628
1019.315	2.43396
1019.477	6.59005
1019.638	17.12461
1019.8	7.18723
1019.962	26.55963
1020.124	4.7657
1020.285	14.84302
1020.447	8.0707
1020.609	19.41418
1020.77	4.45482
1020.932	35.71348
1021.094	6.81093
1021.255	12.11958
1021.417	23.13431
1021.578	11.27714
1021.74	12.07051
1021.901	14.50772
1022.063	2.85124
1022.224	33.48252
1022.386	18.2776
1022.547	23.20789
1022.709	18.48202
1022.87	31.25137
1023.031	12.88839
1023.193	16.64214
1023.354	17.49259
1023.515	32.73882
1023.676	14.96569
1023.838	20.91047
1023.999	16.25779
1024.16	27.11549
1024.321	11.46526
1024.482	28.33344
1024.644	26.33075
1024.805	24.81024
1024.966	8.13614
1025.127	5.51836
1025.288	12.47127
1025.449	33.26186
1025.61	16.24144
1025.771	36.44075
1025.932	27.00923
1026.093	30.30328
1026.253	4.96205
1026.414	2.94123
1026.575	14.74488
1026.736	10.94179
1026.897	7.80894
1027.058	24.81024
1027.218	12.79842
1027.379	12.58577
1027.54	21.00041
1027.7	19.63495
1027.861	22.91357
1028.022	27.99013
1028.182	17.54165
1028.343	13.88617
1028.504	6.90091
1028.664	18.13859
1028.825	12.74117
1028.985	21.56456
1029.146	8.1934
1029.306	9.175
1029.466	26.88661
1029.627	34.68383
1029.787	8.74147
1029.948	17.73791
1030.108	18.9154
1030.268	32.15039
1030.429	5.43655
1030.589	21.06582
1030.749	11.35893
1030.909	17.72155
1031.07	12.61849
1031.23	16.99377
1031.39	4.02939
1031.55	35.18232
1031.71	-1.42
1031.87	17.90963
1032.03	17.01013
1032.19	20.02742
1032.35	0.15929
1032.51	26.90296
1032.67	4.19301
1032.83	12.44673
1032.99	5.42019
1033.15	22.26768
1033.31	24.67944
1033.47	6.41826
1033.63	20.64065
1033.79	16.73209
1033.949	-0.25803
1034.109	27.29533
1034.269	6.50006
1034.429	32.32202
1034.588	11.27714
1034.748	6.09103
1034.908	13.75531
1035.067	17.03466
1035.227	9.45312
1035.387	26.42067
1035.546	22.24316
1035.706	7.39174
1035.865	7.77621
1036.025	16.64214
1036.184	13.79621
1036.344	22.3985
1036.503	13.73896
1036.662	13.76349
1036.822	13.3791
1036.981	11.72699
1037.14	14.2133
1037.3	7.44082
1037.459	7.25267
1037.618	29.81288
1037.778	21.60544
1037.937	22.13687
1038.096	12.16865
1038.255	17.17367
1038.414	5.01114
1038.573	31.11243
1038.733	17.39446
1038.892	32.09318
1039.051	22.07147
1039.21	35.76251
1039.369	3.87394
1039.528	20.68971
1039.687	16.71574
1039.846	30.93262
1040.005	7.79257
1040.164	30.28694
1040.322	8.20976
1040.481	9.53491
1040.64	12.30769
1040.799	18.30213
1040.958	29.39603
1041.116	19.99472
1041.275	9.77212
1041.434	9.92754
1041.593	3.82485
1041.751	18.25306
1041.91	18.05681
1042.069	0.83026
1042.227	7.47354
1042.386	38.93292
1042.544	2.19668
1042.703	20.60795
1042.861	11.57159
1043.02	11.90693
1043.178	10.87635
1043.337	36.80846
1043.495	16.39681
1043.653	11.84967
1043.812	-3.83413
1043.97	16.63396
1044.129	1.89395
1044.287	20.18277
1044.445	17.14914
1044.603	5.00296
1044.762	-10.4639
1044.92	32.10135
1045.078	9.98479
1045.236	19.93748
1045.394	18.68644
1045.552	36.97189
