Data from deut_40ms_100_SR4014911__0__16-17-57-025.txt Node

Date: Sun Jul 13 16:17:57 EDT 2025
User: cryst
Spectrometer: SR401491
Trigger mode: 0
Integration Time (sec): 4.000000E-2
Scans to average: 100
Electric dark correction enabled: true
Nonlinearity correction enabled: true
Boxcar width: 0
XAxis mode: Wavelengths
Number of Pixels in Spectrum: 3648
>>>>>Begin Spectral Data<<<<<
344.912	-66.74299
345.129	-51.17797
345.347	-71.14042
345.565	-56.33619
345.783	19.0492
346.001	11.65308
346.219	2.11121
346.437	18.47281
346.654	41.05136
346.872	30.13952
347.09	-3.99435
347.308	46.28834
347.526	17.39612
347.743	10.09745
347.961	52.67563
348.179	23.42064
348.397	21.30025
348.614	55.08676
348.832	47.3204
349.05	66.03189
349.268	63.35031
349.485	59.63691
349.703	56.29225
349.921	85.45724
350.138	72.84863
350.356	81.38884
350.574	52.75166
350.791	60.53816
351.009	76.45169
351.227	56.02075
351.444	44.50658
351.662	66.17302
351.879	57.73659
352.097	64.04516
352.314	45.115
352.532	77.84069
352.75	65.98846
352.967	79.6962
353.185	74.32464
353.402	55.29311
353.62	43.09412
353.837	79.31643
354.055	64.436
354.272	78.71963
354.49	84.10117
354.707	97.37686
354.925	65.79305
355.142	70.50421
355.359	75.94165
355.577	88.52712
355.794	73.36958
356.012	93.09334
356.229	72.47961
356.446	63.98002
356.664	81.34544
356.881	87.54003
357.099	58.1601
357.316	74.24867
357.533	61.15708
357.751	69.28851
357.968	110.00662
358.185	80.04342
358.402	64.63142
358.62	106.80908
358.837	86.12982
359.054	61.5914
359.272	53.65314
359.489	66.44441
359.706	72.45791
359.923	94.85021
360.141	75.7246
360.358	76.21295
360.575	91.79188
360.792	69.10398
361.009	69.8638
361.226	80.16277
361.444	100.71646
361.661	73.11996
361.878	70.23285
362.095	75.62693
362.312	71.23144
362.529	98.19011
362.746	81.49734
362.963	64.92455
363.181	54.92385
363.398	83.77571
363.615	94.50318
363.832	74.11844
364.049	57.47596
364.266	100.4454
364.483	75.87653
364.7	66.12959
364.917	46.50562
365.134	82.27851
365.351	68.96286
365.568	91.01098
365.785	67.94249
366.002	67.19346
366.219	64.8377
366.436	86.34678
366.652	95.57678
366.869	73.90138
367.086	81.94218
367.303	67.12833
367.52	63.45888
367.737	96.57443
367.954	72.31681
368.171	72.55559
368.387	106.7332
368.604	81.80113
368.821	72.98972
369.038	69.55987
369.255	72.80522
369.471	58.83336
369.688	86.52035
369.905	86.88917
370.122	81.10674
370.339	86.81324
370.555	50.68791
370.772	51.9479
370.989	116.36807
371.205	70.7213
371.422	70.00491
371.639	67.63854
371.855	105.12887
372.072	72.66412
372.289	61.71083
372.505	112.80281
372.722	63.8823
372.939	90.33852
373.155	94.32967
373.372	60.69018
373.589	78.93665
373.805	73.84711
374.022	56.33569
374.238	67.07405
374.455	78.20963
374.671	92.44262
374.888	68.57208
375.104	53.20783
375.321	58.1601
375.537	76.56021
375.754	84.93652
375.97	83.2441
376.187	101.85486
376.403	85.09924
376.62	63.44802
376.836	63.82802
377.053	70.23285
377.269	64.49028
377.486	57.80174
377.702	48.624
377.918	50.49239
378.135	80.31468
378.351	79.79386
378.568	67.35629
378.784	62.04742
379	92.63784
379.217	55.64064
379.433	67.06319
379.649	97.47445
379.865	74.91068
380.082	100.91162
380.298	54.33738
380.514	102.67882
380.731	65.22853
380.947	46.64685
381.163	83.53703
381.379	72.15401
381.596	85.47894
381.812	97.61542
382.028	81.52989
382.244	77.20046
382.46	64.13201
382.676	94.03686
382.893	76.89661
383.109	72.91375
383.325	64.08858
383.541	89.45995
383.757	56.9547
383.973	84.39409
384.189	98.74311
384.405	68.74576
384.622	81.30204
384.838	84.99076
385.054	82.98372
385.27	78.9692
385.486	69.90722
385.702	57.95377
385.918	92.68122
386.134	77.58026
386.35	92.95235
386.566	82.98372
386.782	102.65714
386.998	85.16434
387.214	79.17537
387.43	76.64702
387.646	98.47203
387.861	99.59969
388.077	88.36442
388.293	83.63467
388.509	98.87322
388.725	80.67274
388.941	94.47065
389.157	62.69887
389.373	82.5172
389.588	87.22545
389.804	79.83726
390.02	93.62475
390.236	62.28629
390.452	72.94631
390.668	70.69959
390.883	97.14915
391.099	87.71358
391.315	94.8719
391.531	85.66336
391.746	73.34788
391.962	82.72334
392.178	70.12431
392.393	86.71561
392.609	118.03676
392.825	85.50063
393.041	68.02933
393.256	98.8407
393.472	106.29961
393.687	94.15615
393.903	114.59092
394.119	98.78648
394.334	77.72133
394.55	114.74263
394.766	78.78474
394.981	117.34329
395.197	105.30231
395.412	117.90674
395.628	95.78282
395.843	123.51888
396.059	155.19845
396.274	102.6463
396.49	135.88755
396.705	110.14752
396.921	63.55659
397.136	106.24541
397.352	97.44192
397.567	86.49865
397.783	75.94165
397.998	93.06081
398.214	81.01994
398.429	81.03079
398.644	124.26636
398.86	86.15152
399.075	102.73303
399.29	77.60196
399.506	64.8377
399.721	89.06947
399.936	80.04342
400.152	87.95222
400.367	76.79895
400.582	96.63949
400.798	104.34834
401.013	66.28158
401.228	96.03223
401.444	88.52712
401.659	86.79154
401.874	115.05689
402.089	89.94805
402.304	101.12846
402.52	84.56767
402.735	89.9372
402.95	71.01436
403.165	86.43357
403.38	106.44052
403.596	87.05189
403.811	103.65453
404.026	136.80794
404.241	79.79386
404.456	91.0869
404.671	110.19087
404.886	107.91471
405.101	69.99406
405.316	102.29937
405.532	108.20737
405.747	106.35381
405.962	112.62941
406.177	100.18519
406.392	88.92846
406.607	113.05207
406.822	97.05156
407.037	124.87299
407.252	140.13191
407.467	126.40035
407.682	131.02522
407.896	150.64255
408.111	144.55964
408.326	154.58166
408.541	196.68667
408.756	195.59538
408.971	209.76809
409.186	208.6125
409.401	188.301
409.616	118.14511
409.83	89.48165
410.045	91.61835
410.26	84.43748
410.475	65.67364
410.69	88.35357
410.905	97.2359
411.119	52.11083
411.334	85.81523
411.549	81.34544
411.764	102.32105
411.978	101.15014
412.193	87.03019
412.408	68.76747
412.623	77.25471
412.837	116.9207
413.052	108.74933
413.267	83.41769
413.481	89.78535
413.696	77.84069
413.911	85.95626
414.125	70.66702
414.34	76.05017
414.554	74.3572
414.769	96.39009
414.984	89.91551
415.198	59.26772
415.413	72.30596
415.627	86.60713
415.842	78.03601
416.056	95.21892
416.271	66.27072
416.485	88.961
416.7	86.40102
416.914	84.22051
417.129	66.53126
417.343	89.76366
417.558	80.98739
417.772	104.13153
417.987	86.43357
418.201	92.1281
418.415	69.53817
418.63	81.29119
418.844	78.91495
419.059	100.41287
419.273	84.7087
419.487	121.17882
419.702	92.34501
419.916	127.59184
420.13	85.60912
420.345	79.53344
420.559	75.62693
420.773	89.09116
420.988	84.99076
421.202	112.81364
421.416	77.22216
421.63	97.64795
421.845	93.47292
422.059	100.7273
422.273	70.26542
422.487	91.75935
422.701	121.61218
422.916	115.55536
423.13	91.94372
423.344	91.45566
423.558	71.86096
423.772	71.65474
423.986	87.71358
424.201	86.20576
424.415	113.26881
424.629	106.32129
424.843	93.37532
425.057	109.1612
425.271	68.0836
425.485	63.14402
425.699	72.31681
425.913	119.44532
426.127	92.55108
426.341	77.9492
426.555	93.64644
426.769	93.92841
426.983	108.80352
427.197	107.3619
427.411	89.91551
427.625	127.12608
427.839	75.16029
428.053	98.50456
428.267	76.20209
428.481	105.595
428.695	80.68359
428.908	67.66025
429.122	90.21921
429.336	88.78745
429.55	89.87212
429.764	101.65971
429.978	131.45843
430.191	139.29825
430.405	192.85076
430.619	184.34503
430.833	227.93807
431.047	310.95424
431.26	403.75689
431.474	484.68911
431.688	534.53132
431.901	561.45089
432.115	673.08479
432.329	755.05902
432.543	833.38547
432.756	998.35333
432.97	1019.3514
433.184	697.87029
433.397	316.73269
433.611	130.09381
433.824	108.98778
434.038	103.5678
434.252	79.20792
434.465	91.02183
434.679	72.80522
434.892	109.18288
435.106	65.85819
435.319	84.39409
435.533	110.66776
435.747	102.88481
435.96	63.51317
436.174	113.77815
436.387	100.98751
436.601	105.23727
436.814	102.19095
437.027	88.81999
437.241	99.68643
437.454	83.47194
437.668	96.07561
437.881	115.49035
438.095	100.02255
438.308	94.57909
438.521	119.32613
438.735	99.59969
438.948	98.45035
439.161	102.27769
439.375	86.82409
439.588	120.01955
439.801	100.6514
440.015	101.83318
440.228	110.92788
440.441	128.33921
440.654	135.07542
440.868	137.58754
441.081	85.3813
441.294	120.37709
441.507	121.72052
441.721	98.38529
441.934	99.32862
442.147	103.24257
442.36	91.6292
442.573	100.41287
442.786	77.33068
443	111.88161
443.213	89.08032
443.426	103.96892
443.639	111.23134
443.852	106.70068
444.065	115.86961
444.278	114.84016
444.491	104.37003
444.704	104.87953
444.917	124.0822
445.13	121.04881
445.343	85.86947
445.556	142.29715
445.769	149.41958
445.982	113.60476
446.195	132.02158
446.408	116.59563
446.621	125.23046
446.834	111.27469
447.047	98.04915
447.26	109.63811
447.473	111.62151
447.686	114.46088
447.899	96.86721
448.111	114.26581
448.324	112.71611
448.537	113.04123
448.75	98.71058
448.963	109.37798
449.176	117.15909
449.388	120.00872
449.601	105.07466
449.814	103.71957
450.027	91.81358
450.239	119.80286
450.452	106.4622
450.665	94.7743
450.878	98.23349
451.09	106.36465
451.303	102.3861
451.516	89.32979
451.728	110.09333
451.941	90.91337
452.154	121.10298
452.366	119.27196
452.579	91.58581
452.792	117.46248
453.004	109.26959
453.217	105.87684
453.429	96.47684
453.642	104.34834
453.854	125.70709
454.067	133.33196
454.28	147.10337
454.492	83.23326
454.705	86.68307
454.917	95.07794
455.13	127.76514
455.342	125.31712
455.555	79.38153
455.767	147.87185
455.979	100.83572
456.192	118.15595
456.404	91.05436
456.617	108.90107
456.829	97.69132
457.041	132.19486
457.254	108.3808
457.466	108.97694
457.679	93.24517
457.891	125.53377
458.103	106.8958
458.315	107.63289
458.528	87.20375
458.74	97.3118
458.952	110.55938
459.165	101.69224
459.377	83.85165
459.589	83.39599
459.801	115.59871
460.014	114.82932
460.226	116.31389
460.438	112.00083
460.65	74.50913
460.862	104.99878
461.075	87.54003
461.287	84.41579
461.499	76.52765
461.711	77.56941
461.923	90.01313
462.135	103.11247
462.347	81.35629
462.559	106.48388
462.771	108.51087
462.983	86.34678
463.196	104.89038
463.408	114.5259
463.62	100.66225
463.832	125.06798
464.044	102.7005
464.256	122.61971
464.468	90.90252
464.68	112.3368
464.891	117.23494
465.103	100.99835
465.315	121.81802
465.527	97.22505
465.739	84.95822
465.951	108.09898
466.163	103.15584
466.375	97.43108
466.587	111.56732
466.799	104.56516
467.01	81.99642
467.222	96.30333
467.434	84.15542
467.646	93.98263
467.858	109.56224
468.069	92.26909
468.281	62.52515
468.493	77.60196
468.705	82.76674
468.916	99.05755
469.128	71.71986
469.34	93.04996
469.551	71.9695
469.763	69.93978
469.975	86.19491
470.186	84.82803
470.398	73.01143
470.61	80.79209
470.821	55.74924
471.033	85.81523
471.245	110.45099
471.456	63.90402
471.668	95.40327
471.879	81.89878
472.091	95.19723
472.302	113.84318
472.514	103.83882
472.725	82.45211
472.937	77.79729
473.148	75.13858
473.36	86.43357
473.571	99.01418
473.783	80.55338
473.994	83.62382
474.206	75.9525
474.417	84.53512
474.629	88.49458
474.84	104.02312
475.051	104.15321
475.263	75.96335
475.474	79.50089
475.685	101.83318
475.897	81.62753
476.108	118.28597
476.319	83.20071
476.531	86.46611
476.742	102.45115
476.953	110.64608
477.165	130.86277
477.376	93.91756
477.587	87.54003
477.798	100.84656
478.01	85.44639
478.221	95.85873
478.432	99.25272
478.643	93.88503
478.854	79.83726
479.065	142.05898
479.277	102.05001
479.488	109.42134
479.699	107.40526
479.91	108.99862
480.121	116.11884
480.332	103.17752
480.543	109.81153
480.754	87.90884
480.965	94.167
481.176	111.28553
481.387	127.36438
481.598	108.50003
481.809	132.84464
482.02	178.35598
482.231	375.96904
482.442	811.95073
482.653	1667.35216
482.864	2822.01728
483.075	4390.26845
483.286	6252.64825
483.497	8465.23088
483.708	10223.55924
483.919	11667.83465
484.13	13005.50877
484.341	14829.5749
484.551	17389.23768
484.762	19656.68103
484.973	20302.41132
485.184	13909.49782
485.395	4466.27599
485.605	1213.29057
485.816	529.41391
486.027	278.41425
486.238	208.16969
486.449	204.32454
486.659	166.43891
486.87	152.67711
487.081	159.45067
487.291	147.10337
487.502	131.53424
487.713	105.71424
487.923	129.75806
488.134	110.75447
488.345	162.16612
488.555	139.80711
488.766	101.89823
488.976	139.8829
489.187	124.32052
489.398	110.86285
489.608	135.31365
489.819	108.26157
490.029	99.18767
490.24	149.87414
490.45	141.6909
490.661	131.01439
490.871	124.89465
491.082	104.60852
491.292	111.43726
491.503	116.29222
491.713	118.2318
491.924	107.73044
492.134	112.06586
492.344	103.34014
492.555	114.60175
492.765	133.51606
492.975	140.96555
493.186	141.66925
493.396	137.05698
493.607	87.88714
493.817	143.52043
494.027	116.43309
494.237	110.72195
494.448	100.68393
494.658	137.80409
494.868	98.22264
495.078	131.83748
495.289	137.43595
495.499	109.57308
495.709	89.73112
495.919	108.55422
496.129	122.58721
496.34	94.17784
496.55	80.69444
496.76	122.67388
496.97	127.62434
497.18	110.50519
497.39	103.9906
497.6	121.38467
497.81	128.77245
498.021	136.63469
498.231	133.08288
498.441	122.77138
498.651	109.17204
498.861	81.54074
499.071	115.91296
499.281	123.97387
499.491	107.78464
499.701	126.50867
499.911	115.62038
500.121	113.60476
500.331	108.10982
500.54	155.94507
500.75	115.55536
500.96	131.63171
501.17	98.29854
501.38	119.93287
501.59	123.24805
501.8	108.99862
502.01	88.26679
502.219	110.26674
502.429	132.09739
502.639	147.21161
502.849	131.13353
503.059	104.94458
503.268	118.75188
503.478	107.31854
503.688	125.55544
503.898	116.31389
504.107	104.29414
504.317	147.49303
504.527	114.32
504.736	127.4077
504.946	110.41848
505.156	136.62386
505.365	91.95457
505.575	121.04881
505.785	99.578
505.994	124.23386
506.204	112.72694
506.413	114.49339
506.623	90.95675
506.832	112.60773
507.042	103.58948
507.251	122.60888
507.461	122.44638
507.67	118.28597
507.88	98.33107
508.089	107.05839
508.299	123.21555
508.508	122.26221
508.718	85.45724
508.927	98.17927
509.137	135.62767
509.346	135.73595
509.555	107.95807
509.765	104.41339
509.974	181.3831
510.184	122.82555
510.393	101.20435
510.602	104.93374
510.812	119.43448
511.021	111.35056
511.23	145.07923
511.439	102.49452
511.649	99.40452
511.858	117.12658
512.067	110.80866
512.276	132.12988
512.486	204.82141
512.695	115.91296
512.904	95.60931
513.113	115.9563
513.322	105.7034
513.531	115.34947
513.741	132.74717
513.95	91.72681
514.159	117.73337
514.368	100.6514
514.577	104.80365
514.786	98.63468
514.995	103.9906
515.204	108.09898
515.413	96.7154
515.622	104.93374
515.831	102.42947
516.04	112.41266
516.249	79.81556
516.458	98.54794
516.667	118.00426
516.876	121.21132
517.085	102.19095
517.294	122.18637
517.503	99.49126
517.712	105.31315
517.921	109.71398
518.13	119.18528
518.339	109.50804
518.547	148.67279
518.756	94.95865
518.965	103.11247
519.174	103.50275
519.383	113.91903
519.591	95.43581
519.8	84.95822
520.009	104.66272
520.218	103.93639
520.426	111.19883
520.635	113.1496
520.844	106.4622
521.053	125.64209
521.261	113.01955
521.47	124.25552
521.679	114.6451
521.887	112.58606
522.096	95.29483
522.304	96.35755
522.513	84.61106
522.722	90.8266
522.93	124.24469
523.139	108.47835
523.347	89.48165
523.556	93.06081
523.764	94.0477
523.973	95.27314
524.182	84.44833
524.39	118.95775
524.598	85.48978
524.807	88.02816
525.015	91.47736
525.224	100.75983
525.432	101.7356
525.641	85.25112
525.849	96.95396
526.057	113.19295
526.266	122.85805
526.474	94.30798
526.683	83.41769
526.891	123.00972
527.099	96.99734
527.308	106.90664
527.516	80.81379
527.724	131.84831
527.932	77.66707
528.141	130.81945
528.349	130.41873
528.557	106.75488
528.765	94.94781
528.974	79.62025
529.182	92.83305
529.39	116.56312
529.598	87.03019
529.806	78.14453
530.015	107.75212
530.223	104.46759
530.431	91.73766
530.639	85.18603
530.847	84.25306
531.055	100.13097
531.263	99.27441
531.471	72.68583
531.679	73.32617
531.887	113.24714
532.095	113.12793
532.303	123.60554
532.511	92.0088
532.719	95.98886
532.927	95.78282
533.135	109.65979
533.343	133.50523
533.551	112.44517
533.759	101.55129
533.967	127.77598
534.175	98.74311
534.383	124.54801
534.591	116.93154
534.798	120.70212
535.006	84.67615
535.214	107.94723
535.422	84.84973
535.63	130.10464
535.837	89.73112
536.045	96.74793
536.253	93.04996
536.461	108.27241
536.668	103.82798
536.876	122.58721
537.084	122.98805
537.292	112.94369
537.499	126.77946
537.707	114.36334
537.915	114.60175
538.122	125.6096
538.33	120.86463
538.538	110.04997
538.745	119.40198
538.953	131.89163
539.16	114.34167
539.368	95.83704
539.575	104.64104
539.783	107.03671
539.99	134.12248
540.198	112.29345
540.406	98.60215
540.613	110.13668
540.82	88.89592
541.028	117.79838
541.235	108.17485
541.443	132.1732
541.65	146.31321
541.858	127.96011
542.065	100.54298
542.272	114.37418
542.48	144.65706
542.687	94.05855
542.895	120.44209
543.102	101.70308
543.309	113.11709
543.516	113.16044
543.724	110.55938
543.931	110.36429
544.138	131.28515
544.346	102.97154
544.553	112.86783
544.76	112.12004
544.967	105.10718
545.174	127.51602
545.382	103.24257
545.589	123.82221
545.796	123.11805
546.003	103.5678
546.21	116.75816
546.417	145.62046
546.624	111.9358
546.832	116.3464
547.039	105.84432
547.246	139.90455
547.453	112.04418
547.66	92.33417
547.867	117.38663
548.074	109.15037
548.281	99.75149
548.488	109.24792
548.695	93.45123
548.902	108.95527
549.109	95.83704
549.316	91.18452
549.523	90.39275
549.73	103.5678
549.936	102.94985
550.143	104.17489
550.35	93.75489
550.557	94.63332
550.764	90.41444
550.971	124.63467
551.178	105.33483
551.384	119.79203
551.591	119.55366
551.798	129.06489
552.005	99.15514
552.211	120.76712
552.418	107.81716
552.625	87.90884
552.832	105.7576
553.038	129.38982
553.245	102.78723
553.452	128.42586
553.658	94.25375
553.865	95.67438
554.072	104.9229
554.278	120.24708
554.485	136.7538
554.691	140.73819
554.898	95.02372
555.105	136.02832
555.311	115.05689
555.518	131.39345
555.724	105.10718
555.931	91.82442
556.137	87.04104
556.344	119.73785
556.55	114.4392
556.757	111.48061
556.963	96.59612
557.17	113.13876
557.376	124.51551
557.582	135.90921
557.789	88.66813
557.995	109.39966
558.202	90.58798
558.408	111.64318
558.614	93.2994
558.821	115.65289
559.027	111.24218
559.233	122.58721
559.439	139.96951
559.646	107.42694
559.852	127.92762
560.058	122.84722
560.264	121.34133
560.471	124.0172
560.677	123.05305
560.883	128.12258
561.089	125.5771
561.295	112.49936
561.502	112.43433
561.708	112.93286
561.914	114.63426
562.12	120.09539
562.326	121.37383
562.532	129.33566
562.738	132.62805
562.944	111.28553
563.15	108.42415
563.356	105.06382
563.562	117.41914
563.768	129.21652
563.974	93.07165
564.18	130.4079
564.386	105.45408
564.592	100.35866
564.798	104.09901
565.004	142.68687
565.21	89.95889
565.416	137.40347
565.622	128.24173
565.828	135.87672
566.034	125.41461
566.239	116.99655
566.445	144.54881
566.651	141.10629
566.857	155.65292
567.063	138.57283
567.268	159.072
567.474	153.33722
567.68	150.97805
567.886	168.23436
568.091	185.28544
568.297	177.28559
568.503	178.09649
568.708	192.95882
568.914	194.20149
569.12	201.11624
569.325	179.64254
569.531	184.7666
569.737	156.10738
569.942	173.78224
570.148	190.75429
570.353	232.4275
570.559	218.75197
570.765	199.17164
570.97	197.65908
571.176	249.96831
571.381	193.53153
571.587	164.78396
571.792	167.01217
571.998	183.43703
572.203	180.45337
572.408	234.6072
572.614	259.28452
572.819	231.38075
573.025	214.34677
573.23	215.05942
573.435	204.92943
573.641	214.09842
573.846	178.11812
574.051	207.64048
574.257	231.15413
574.462	229.31951
574.667	211.99273
574.873	210.12447
575.078	234.13243
575.283	229.66486
575.488	249.70949
575.694	269.15813
575.899	202.23973
576.104	236.37674
576.309	237.01331
576.514	252.77212
576.719	299.59846
576.925	343.11403
577.13	299.14629
577.335	280.63356
577.54	255.93147
577.745	221.11625
577.95	236.18253
578.155	216.61424
578.36	199.6578
578.565	218.0718
578.77	260.72913
578.975	281.46306
579.18	232.25484
579.385	263.97383
579.59	289.75678
579.795	237.47725
580	191.05688
580.205	228.12155
580.41	296.27161
580.615	456.67525
580.82	464.81335
581.024	389.12023
581.229	370.38475
581.434	356.78476
581.639	278.4358
581.844	233.44183
582.049	210.63205
582.253	240.23913
582.458	202.46658
582.663	184.11804
582.868	178.3776
583.072	185.29625
583.277	238.5993
583.482	264.58823
583.686	262.50783
583.891	245.30907
584.096	255.26296
584.3	302.45127
584.505	250.3889
584.71	256.84794
584.914	265.62299
585.119	254.04453
585.323	232.95625
585.528	194.2231
585.733	198.82592
585.937	219.69123
586.142	171.7276
586.346	247.44465
586.551	235.54593
586.755	233.01021
586.959	293.50433
587.164	281.88319
587.368	234.77984
587.573	263.43487
587.777	385.28819
587.982	1248.34402
588.186	2973.1273
588.39	1279.66355
588.595	786.68654
588.799	1615.18483
589.003	682.94379
589.208	284.68389
589.412	241.30713
589.616	218.01782
589.82	220.49011
590.025	168.69943
590.229	183.60998
590.433	170.86244
590.637	163.60488
590.842	222.64914
591.046	243.07625
591.25	205.85834
591.454	160.29454
591.658	183.27488
591.862	258.69157
592.067	390.11841
592.271	322.91879
592.475	274.62165
592.679	275.69914
592.883	249.28889
593.087	271.29193
593.291	234.95249
593.495	200.74894
593.699	189.1332
593.903	236.722
594.107	309.53366
594.311	304.19512
594.515	277.43383
594.719	224.84039
594.923	228.54246
595.127	254.15236
595.33	243.13019
595.534	182.5398
595.738	246.97009
595.942	220.7492
596.146	201.38631
596.35	216.19315
596.553	206.58201
596.757	218.98949
596.961	273.70575
597.165	230.13971
597.369	170.70022
597.572	183.44784
597.776	179.64254
597.98	262.60485
598.183	291.18909
598.387	263.86604
598.591	219.56168
598.794	213.79607
598.998	229.91308
599.202	246.88381
599.405	281.75392
599.609	249.89282
599.812	286.48266
600.016	264.15707
600.22	294.6888
600.423	287.89359
600.627	264.12474
600.83	216.46308
601.034	281.02138
601.237	309.27537
601.441	205.38309
601.644	213.78527
601.847	268.78092
602.051	238.83665
602.254	233.58211
602.458	254.89636
602.661	303.3555
602.864	239.2574
603.068	222.36848
603.271	209.2173
603.475	192.34286
603.678	203.67643
603.881	204.90783
604.084	173.42539
604.288	192.46173
604.491	235.39487
604.694	246.02095
604.897	182.96139
605.101	210.32966
605.304	226.54578
605.507	196.85955
605.71	162.71783
605.913	224.76483
606.116	231.51024
606.32	229.12525
606.523	194.96868
606.726	198.03722
606.929	226.5026
607.132	230.44188
607.335	236.70042
607.538	207.30566
607.741	174.63649
607.944	158.62841
608.147	158.17399
608.35	197.43219
608.553	200.65171
608.756	197.99401
608.959	205.5127
609.162	240.68144
609.365	224.45181
609.568	219.60486
609.771	166.59033
609.973	212.71624
610.176	214.72469
610.379	185.32867
610.582	172.37645
610.785	215.52372
610.988	192.22399
611.19	163.79959
611.393	171.15444
611.596	154.99286
611.799	162.92337
612.001	200.37082
612.204	159.21265
612.407	168.82922
612.609	187.40393
612.812	200.68412
613.015	197.59425
613.217	198.43698
613.42	160.69483
613.623	172.89552
613.825	206.60361
614.028	227.49557
614.23	180.69121
614.433	168.28844
614.636	177.35047
614.838	212.2519
615.041	211.47438
615.243	156.37788
615.446	144.47304
615.648	140.83563
615.85	155.3824
616.053	128.06842
616.255	163.42098
616.458	160.21881
616.66	147.76362
616.863	142.63274
617.065	143.72611
617.267	158.57431
617.47	151.19449
617.672	137.69581
617.874	128.45835
618.077	137.97733
618.279	146.11838
618.481	179.04792
618.683	119.8462
618.886	121.363
619.088	183.95589
619.29	169.70525
619.492	126.34619
619.694	149.17065
619.897	159.62377
620.099	124.743
620.301	93.77658
620.503	96.03223
620.705	117.01822
620.907	130.47288
621.109	105.595
621.311	133.63518
621.513	141.80998
621.715	159.62377
621.917	159.65623
622.119	161.52785
622.321	145.10088
622.523	152.35245
622.725	117.72254
622.927	127.27772
623.129	133.80844
623.331	126.25953
623.533	110.68944
623.735	137.05698
623.937	145.41479
624.139	123.48638
624.341	131.64254
624.542	105.83348
624.744	99.37199
624.946	133.92756
625.148	104.65188
625.35	124.81883
625.551	117.14825
625.753	98.75395
625.955	114.45004
626.156	112.71611
626.358	124.13636
626.56	121.24383
626.762	143.82354
626.963	121.51467
627.165	98.24433
627.366	135.4869
627.568	129.42231
627.77	125.10047
627.971	131.67503
628.173	130.75447
628.374	114.37418
628.576	117.38663
628.777	136.84042
628.979	97.2359
629.18	87.61596
629.382	87.04104
629.583	123.15055
629.785	127.41854
629.986	90.12159
630.188	117.2241
630.389	108.42415
630.591	127.33188
630.792	80.31468
630.993	82.36531
631.195	88.00646
631.396	97.47445
631.597	94.72007
631.799	103.10163
632	112.64025
632.201	95.68522
632.402	115.63122
632.604	130.41873
632.805	83.03797
633.006	114.48255
633.207	111.68653
633.409	138.2047
633.61	96.43346
633.811	98.98165
634.012	113.76732
634.213	101.90907
634.414	109.1612
634.615	108.71681
634.816	132.51975
635.017	124.59134
635.219	119.20695
635.42	113.91903
635.621	118.96858
635.822	133.63518
636.023	107.65457
636.224	108.59758
636.425	94.95865
636.626	106.65732
636.826	90.66391
637.027	121.70969
637.228	99.11177
637.429	79.01261
637.63	93.04996
637.831	83.78656
638.032	94.08024
638.233	77.1679
638.433	73.85797
638.634	114.20079
638.835	95.01288
639.036	110.92788
639.237	72.51217
639.437	73.09825
639.638	93.9501
639.839	94.44896
640.039	72.52303
640.24	98.42866
640.441	81.12844
640.641	74.65022
640.842	100.10929
641.043	82.5823
641.243	63.68688
641.444	83.17901
641.645	110.10417
641.845	78.49176
642.046	81.56243
642.246	78.9475
642.447	54.89127
642.647	86.76985
642.848	107.67625
643.048	113.6156
643.249	80.77039
643.449	78.14453
643.65	66.01018
643.85	67.56255
644.05	85.56572
644.251	66.44441
644.451	67.64939
644.651	79.6745
644.852	71.09033
645.052	72.63156
645.252	69.33193
645.453	70.38481
645.653	68.17045
645.853	79.92406
646.054	75.54012
646.254	74.30293
646.454	46.53821
646.654	47.78753
646.854	53.4685
647.055	105.83348
647.255	58.90938
647.455	119.74869
647.655	71.8284
647.855	100.56467
648.055	83.37429
648.255	84.35069
648.455	88.67898
648.655	86.54204
648.856	75.36648
649.056	81.58413
649.256	76.32147
649.456	64.19715
649.656	65.66278
649.856	88.36442
650.055	78.69793
650.255	111.69737
650.455	97.12746
650.655	104.39171
650.855	136.42896
651.055	173.31726
651.255	179.08035
651.455	183.86942
651.655	137.90154
651.854	136.91622
652.054	103.64369
652.254	135.02127
652.454	168.55883
652.654	161.31149
652.853	225.02389
653.053	312.56845
653.253	583.11095
653.452	1700.09161
653.652	6533.62149
653.852	16840.05558
654.051	33570.26873
654.251	57880.38677
654.451	63439.99069
654.65	63439.99069
654.85	63439.99069
655.049	63439.99069
655.249	63439.99069
655.449	63439.99069
655.648	63439.99069
655.848	63439.99069
656.047	63439.99069
656.247	63439.99069
656.446	60957.46804
656.645	14306.52578
656.845	6663.0034
657.044	4529.16969
657.244	3043.67514
657.443	2171.60685
657.643	1710.04291
657.842	1373.62822
658.041	1197.34622
658.241	1071.53784
658.44	940.31247
658.639	861.90601
658.839	820.06444
659.038	732.9915
659.237	682.46526
659.436	650.1116
659.636	645.6513
659.835	571.77059
660.034	570.66087
660.233	532.70453
660.432	502.22099
660.631	500.56343
660.831	498.29616
661.03	444.16407
661.229	459.87721
661.428	430.62953
661.627	411.09401
661.826	408.30526
662.025	377.86961
662.224	360.54525
662.423	361.40473
662.622	327.01703
662.821	339.96414
663.02	361.24358
663.219	322.42395
663.418	339.07179
663.617	330.57698
663.816	313.19259
664.015	278.36039
664.214	271.64755
664.412	268.26361
664.611	285.85795
664.81	274.6863
665.009	294.15041
665.208	258.2711
665.406	243.35671
665.605	256.91263
665.804	235.58909
666.003	246.30138
666.201	220.33897
666.4	217.70472
666.599	233.92741
666.798	216.87337
666.996	225.77945
667.195	196.31931
667.394	204.42175
667.592	226.23277
667.791	203.57921
667.989	212.11152
668.188	209.81129
668.386	229.28713
668.585	203.73044
668.783	205.96635
668.982	213.97964
669.18	228.11076
669.379	191.19737
669.577	172.08447
669.776	171.12199
669.974	191.13253
670.173	190.67864
670.371	165.91972
670.57	169.66199
670.768	181.13445
670.966	204.7458
671.165	197.58345
671.363	171.9547
671.561	180.07499
671.76	190.1599
671.958	208.09409
672.156	196.04919
672.354	159.15855
672.553	151.50834
672.751	142.18889
672.949	151.36765
673.147	172.84145
673.345	149.23559
673.543	166.77421
673.742	142.60027
673.94	127.93845
674.138	148.02338
674.336	152.64464
674.534	144.23489
674.732	165.28153
674.93	154.17046
675.128	116.3464
675.326	133.36445
675.524	126.40035
675.722	161.00857
675.92	124.0497
676.118	123.05305
676.316	140.65158
676.514	138.19388
676.712	115.0894
676.91	137.44678
677.108	132.27067
677.305	161.79831
677.503	130.59201
677.701	140.73819
677.899	118.39432
678.097	127.52685
678.295	124.93799
678.492	122.37054
678.69	140.58662
678.888	123.48638
679.085	152.35245
679.283	132.1732
679.481	100.13097
679.679	104.89038
679.876	117.75504
680.074	130.96024
680.271	116.54145
680.469	114.17912
680.667	126.9636
680.864	132.68219
681.062	137.74995
681.259	131.69669
681.457	90.00228
681.654	129.71474
681.852	96.07561
682.049	105.46492
682.247	103.90387
682.444	114.47171
682.642	119.22862
682.839	102.06085
683.037	110.97123
683.234	137.68499
683.431	112.23926
683.629	103.12331
683.826	95.58763
684.023	113.35551
684.221	127.22357
684.418	147.43891
684.615	132.95293
684.813	130.72198
685.01	126.93111
685.207	104.65188
685.404	86.97595
685.601	140.22935
685.799	139.22246
685.996	119.82453
686.193	95.11048
686.39	87.40986
686.587	113.76732
686.784	122.56555
686.981	119.91121
687.179	113.00872
687.376	68.12702
687.573	100.8574
687.77	111.52397
687.967	93.48377
688.164	103.26425
688.361	92.42093
688.558	88.59221
688.755	96.83468
688.952	111.24218
689.148	100.2394
689.345	92.20402
689.542	112.13088
689.739	89.9372
689.936	87.65935
690.133	104.80365
690.33	95.47918
690.526	90.64221
690.723	139.52561
690.92	109.84404
691.117	94.98034
691.314	90.17582
691.51	85.76099
691.707	80.32553
691.904	79.26218
692.1	112.16339
692.297	78.8607
692.494	83.85165
692.69	132.33565
692.887	116.40058
693.084	97.8865
693.28	85.0667
693.477	95.42496
693.673	99.70812
693.87	85.50063
694.066	73.56494
694.263	87.67019
694.459	83.14646
694.656	96.93227
694.852	85.21858
695.049	79.13197
695.245	104.83617
695.442	88.16917
695.638	59.40888
695.834	86.82409
696.031	87.45325
696.227	91.11944
696.423	102.40778
696.62	100.2394
696.816	112.74862
697.012	87.33392
697.209	94.81767
697.405	111.58899
697.601	114.72096
697.797	79.7179
697.994	74.82386
698.19	69.57073
698.386	96.81299
698.582	100.42372
698.778	58.24697
698.974	67.01977
699.17	61.5914
699.367	91.97626
699.563	111.70821
699.759	67.31287
699.955	85.59827
700.151	88.64644
700.347	74.81301
700.543	80.56423
700.739	98.10337
700.935	71.41595
701.131	68.75662
701.327	69.8638
701.523	99.29609
701.718	74.88897
701.914	87.86545
702.11	97.17083
702.306	103.86051
702.502	90.60967
702.698	65.84733
702.894	79.09941
703.089	85.6959
703.285	74.53084
703.481	62.95945
703.677	77.93835
703.872	74.63937
704.068	82.54975
704.264	60.54902
704.459	47.85271
704.655	50.65532
704.851	63.06802
705.046	31.91136
705.242	49.80805
705.438	29.04156
705.633	65.1851
705.829	56.33569
706.024	94.93696
706.22	92.71376
706.415	90.41444
706.611	75.50756
706.806	90.65306
707.002	68.07275
707.197	81.35629
707.393	87.14952
707.588	54.69578
707.784	82.84268
707.979	58.08408
708.174	58.26869
708.37	63.48059
708.565	64.70742
708.76	65.7822
708.956	76.95087
709.151	73.46726
709.346	68.04018
709.542	53.05578
709.737	61.73255
709.932	85.70675
710.127	67.98591
710.322	65.9559
710.518	69.93978
710.713	52.43668
710.908	42.07276
711.103	68.4961
711.298	82.22427
711.493	59.31115
711.688	47.24436
711.883	62.88345
712.078	90.89167
712.273	89.42741
712.468	47.65717
712.663	71.03606
712.858	82.31106
713.053	62.82916
713.248	76.67958
713.443	71.52449
713.638	48.54796
713.833	60.69018
714.028	67.4757
714.223	99.38284
714.418	102.58125
714.613	63.74116
714.807	99.97918
715.002	61.68912
715.197	63.73031
715.392	41.83372
715.587	40.09513
715.781	51.20929
715.976	58.20354
716.171	73.74944
716.365	66.81351
716.56	84.06863
716.755	38.79111
716.949	52.76252
717.144	75.35563
717.339	64.66399
717.533	63.33945
717.728	81.77943
717.922	32.20485
718.117	53.43592
718.312	70.75386
718.506	58.19268
718.701	101.2694
718.895	89.3081
719.089	69.82038
719.284	71.88267
719.478	50.83998
719.673	42.78989
719.867	73.31532
720.062	61.36338
720.256	63.22002
720.45	52.62132
720.645	37.67178
720.839	55.36913
721.033	63.07888
721.228	48.55883
721.422	67.25859
721.616	62.10171
721.81	77.09194
722.005	75.52926
722.199	72.79436
722.393	46.24488
722.587	46.95104
722.781	74.69363
722.975	68.45268
723.169	69.35364
723.364	68.1813
723.558	53.2187
723.752	51.16585
723.946	92.34501
724.14	55.33655
724.334	67.13918
724.528	50.6336
724.722	50.83998
724.916	74.59596
725.11	73.33702
725.304	62.77488
725.498	82.91863
725.692	57.15017
725.885	77.78643
726.079	84.10117
726.273	68.55037
726.467	57.09587
726.661	63.23088
726.855	65.33709
727.048	90.83744
727.242	43.3223
727.436	72.68583
727.63	49.25406
727.823	72.26254
728.017	39.77999
728.211	59.0614
728.405	66.78095
728.598	61.47196
728.792	49.37355
728.986	66.67239
729.179	62.75316
729.373	63.12231
729.566	53.664
729.76	65.7822
729.953	54.67406
730.147	74.62851
730.34	60.42958
730.534	107.84968
730.727	75.48585
730.921	78.09027
731.114	78.02516
731.308	66.01018
731.501	71.66559
731.695	57.24791
731.888	55.84698
732.081	64.08858
732.275	48.56969
732.468	72.16486
732.661	60.12555
732.855	58.68134
733.048	52.3172
733.241	49.21061
733.434	73.79285
733.628	80.82464
733.821	75.39904
734.014	72.1323
734.207	74.69363
734.4	60.99421
734.594	58.40986
734.787	68.8326
734.98	69.15825
735.173	73.65176
735.366	31.04176
735.559	78.54602
735.752	45.78859
735.945	36.23722
736.138	32.92224
736.331	67.38886
736.524	85.52233
736.717	62.63373
736.91	67.70367
737.103	59.12655
737.296	61.0485
737.489	70.85155
737.682	25.9975
737.875	42.0945
738.067	62.67716
738.26	69.25594
738.453	77.9492
738.646	62.05828
738.839	64.41429
739.031	61.00507
739.224	54.3591
739.417	74.63937
739.61	86.54204
739.802	50.86171
739.995	30.70478
740.188	72.94631
740.38	44.81079
740.573	63.30688
740.765	45.49525
740.958	28.28058
741.151	63.63259
741.343	40.44285
741.536	45.01722
741.728	50.24256
741.921	45.07154
742.113	53.84864
742.306	39.42139
742.498	52.36065
742.691	52.46926
742.883	42.94201
743.076	44.79993
743.268	32.29181
743.46	63.29602
743.653	46.01674
743.845	64.24058
744.037	55.51032
744.23	39.18232
744.422	52.40409
744.614	46.4513
744.807	48.03739
744.999	45.08241
745.191	60.17984
745.383	54.15275
745.575	47.16831
745.768	55.10848
745.96	55.69494
746.152	50.55756
746.344	50.64446
746.536	58.43158
746.728	62.70973
746.92	57.50854
747.112	55.84698
747.304	57.63885
747.496	51.74153
747.688	39.28012
747.88	17.60276
748.072	69.625
748.264	54.61976
748.456	43.81123
748.648	46.03847
748.84	43.15932
749.032	44.82166
749.224	59.75636
749.416	70.222
749.608	62.22114
749.799	66.53126
749.991	55.84698
750.183	78.04687
750.375	34.99823
750.567	54.20705
750.758	26.30192
750.95	59.51747
751.142	41.81198
751.333	42.95287
751.525	47.87444
751.717	70.56934
751.908	81.30204
752.1	44.26755
752.292	38.82371
752.483	57.17189
752.675	42.01844
752.866	71.03606
753.058	80.45573
753.249	73.29361
753.441	60.7119
753.632	37.47616
753.824	47.83099
754.015	46.32093
754.207	67.66025
754.398	67.62768
754.589	37.73698
754.781	38.39989
754.972	43.30056
755.164	62.95945
755.355	56.34655
755.546	57.72573
755.738	46.51648
755.929	46.54908
756.12	85.58742
756.311	84.80634
756.503	53.26214
756.694	63.05717
756.885	54.53287
757.076	96.2708
757.267	88.13663
757.458	88.48374
757.65	73.6192
757.841	70.66702
758.032	82.79929
758.223	78.13368
758.414	77.21131
758.605	66.21644
758.796	48.86299
758.987	80.59678
759.178	57.04158
759.369	41.92064
759.56	56.10763
759.751	54.36996
759.942	56.58546
760.133	44.06112
760.324	55.44515
760.514	47.52681
760.705	67.28031
760.896	58.06237
761.087	63.49145
761.278	52.57788
761.468	34.16133
761.659	59.72378
761.85	57.47596
762.041	38.5955
762.231	60.29928
762.422	46.83154
762.613	63.69774
762.803	57.10673
762.994	86.86748
763.185	28.98721
763.375	60.61417
763.566	49.86237
763.757	43.96334
763.947	56.30311
764.138	58.74649
764.328	80.79209
764.519	82.6474
764.709	65.08739
764.9	56.41171
765.09	50.38377
765.281	49.85151
765.471	40.95357
765.661	44.06112
765.852	45.115
766.042	44.03939
766.232	28.03054
766.423	29.07418
766.613	58.78993
766.803	40.21466
766.994	51.74153
767.184	52.29548
767.374	91.80273
767.564	70.58019
767.755	62.69887
767.945	41.69246
768.135	47.30954
768.325	77.71048
768.515	62.62287
768.706	48.51537
768.896	61.40681
769.086	65.21767
769.276	63.41545
769.466	41.14916
769.656	55.44515
769.846	40.79058
770.036	60.53816
770.226	55.99903
770.416	51.13326
770.606	61.37424
770.796	89.74196
770.986	52.18686
771.176	50.61188
771.366	51.28533
771.555	58.30127
771.745	27.04121
771.935	61.93884
772.125	35.10692
772.315	42.10536
772.504	50.88343
772.694	45.66908
772.884	66.20558
773.074	23.67072
773.263	43.58306
773.453	57.06329
773.643	73.82541
773.832	53.09922
774.022	52.05652
774.212	47.48336
774.401	19.86482
774.591	21.20238
774.781	23.62723
774.97	52.09997
775.16	26.92162
775.349	36.01986
775.539	24.84501
775.728	35.22647
775.918	58.01893
776.107	87.97392
776.297	122.15387
776.486	228.6288
776.675	251.01438
776.865	195.80068
777.054	85.68505
777.243	69.69013
777.433	63.55659
777.622	77.49345
777.811	50.60101
778.001	67.13918
778.19	42.99634
778.379	45.2671
778.568	50.14479
778.758	45.70168
778.947	58.86594
779.136	62.94859
779.325	55.7601
779.514	24.00779
779.703	67.43228
779.892	32.06354
780.082	27.6609
780.271	30.2917
780.46	48.10257
780.649	59.15913
780.838	44.03939
781.027	31.23742
781.216	21.86571
781.405	34.43306
781.594	57.67143
781.783	68.65893
781.971	68.279
782.16	52.25203
782.349	84.38324
782.538	38.88891
782.727	56.7375
782.916	38.24775
783.105	65.69535
783.293	33.98743
783.482	59.98439
783.671	56.99814
783.86	46.11451
784.048	26.00837
784.237	15.61243
784.426	43.72431
784.614	40.9753
784.803	50.18824
784.992	7.21441
785.18	42.26835
785.369	52.05652
785.557	48.27638
785.746	60.1907
785.935	39.18232
786.123	38.063
786.312	21.39812
786.5	38.93238
786.689	54.21791
786.877	41.6164
787.065	49.81892
787.254	20.75654
787.442	25.06246
787.631	27.81311
787.819	56.05333
788.007	66.87865
788.196	60.89649
788.384	62.34058
788.572	66.86779
788.761	26.25843
788.949	38.19341
789.137	39.28012
789.325	35.66121
789.513	29.08505
789.702	45.15846
789.89	48.60228
790.078	37.4979
790.266	17.35262
790.454	43.98507
790.642	35.24821
790.83	67.6711
791.018	30.46563
791.207	33.60701
791.395	44.9629
791.583	31.50918
791.771	62.27543
791.959	38.05214
792.146	26.2693
792.334	26.8129
792.522	28.56323
792.71	48.16775
792.898	36.25896
793.086	59.52833
793.274	37.95433
793.462	67.89906
793.65	64.70742
793.837	35.73729
794.025	51.95876
794.213	27.07383
794.401	45.74513
794.588	38.13908
794.776	26.67157
794.964	24.06216
795.151	39.32359
795.339	52.84941
795.527	37.94346
795.714	2.89471
795.902	29.75904
796.089	27.0847
796.277	16.17801
796.465	47.8853
796.652	51.04636
796.84	28.51975
797.027	34.61783
797.215	31.67223
797.402	60.64675
797.59	75.93079
797.777	33.21572
797.964	27.39998
798.152	15.60156
798.339	59.57176
798.526	19.86482
798.714	25.9975
798.901	26.84552
799.088	54.43513
799.276	27.61742
799.463	45.33229
799.65	25.8779
799.837	34.11786
800.025	9.21626
800.212	44.70214
800.399	20.09319
800.586	31.43309
800.773	23.27928
800.96	20.32156
801.148	49.5908
801.335	48.47192
801.522	53.29472
801.709	30.48737
801.896	39.18232
802.083	35.61773
802.27	15.04685
802.457	39.17145
802.644	23.92081
802.831	43.58306
803.018	20.60429
803.204	33.06355
803.391	35.68294
803.578	38.82371
803.765	22.83347
803.952	56.65062
804.139	13.97002
804.326	41.62726
804.512	39.86693
804.699	50.06876
804.886	27.63916
805.073	24.70366
805.259	29.49814
805.446	92.30163
805.633	36.40025
805.819	65.17425
806.006	47.37472
806.192	43.47441
806.379	6.48545
806.566	20.54992
806.752	45.73427
806.939	38.42163
807.125	12.09908
807.312	42.65951
807.498	55.47774
807.685	53.77261
807.871	23.9643
808.058	59.05054
808.244	44.33274
808.43	52.24117
808.617	28.5741
808.803	56.70492
808.99	22.2028
809.176	37.71525
809.362	25.94313
809.549	43.10499
809.735	24.70366
809.921	8.84636
810.107	42.94201
810.293	32.36789
810.48	43.51787
810.666	33.07442
810.852	29.5525
811.038	41.18176
811.224	26.94337
811.41	41.23609
811.597	55.94473
811.783	18.33143
811.969	26.87814
812.155	18.1683
812.341	29.1394
812.527	40.76884
812.713	27.0847
812.899	26.99773
813.085	23.73596
813.271	52.63218
813.456	48.17861
813.642	23.57286
813.828	14.04616
814.014	59.63691
814.2	40.30159
814.386	35.32429
814.572	12.06644
814.757	47.41818
814.943	68.58294
815.129	42.67037
815.315	27.48696
815.5	30.12864
815.686	45.83205
815.872	10.85896
816.057	21.77871
816.243	65.27195
816.429	24.20351
816.614	46.34266
816.8	27.61742
816.985	29.70469
817.171	35.82423
817.356	42.20315
817.542	40.55152
817.727	47.29868
817.913	10.03218
818.098	36.79149
818.284	18.86432
818.469	21.48511
818.655	18.41843
818.84	54.23963
819.025	10.14097
819.211	58.4533
819.396	47.27695
819.581	23.86644
819.767	26.70418
819.952	46.27748
820.137	36.46545
820.322	45.82118
820.508	75.05176
820.693	43.27883
820.878	26.6607
821.063	36.66108
821.248	48.26552
821.433	18.17917
821.618	43.55046
821.804	34.46566
821.989	19.81044
822.174	52.38237
822.359	59.39802
822.544	16.51517
822.729	58.78993
822.914	20.07144
823.099	22.08318
823.284	24.20351
823.469	28.84588
823.653	44.98462
823.838	44.99549
824.023	31.31351
824.208	21.322
824.393	64.436
824.578	33.88961
824.762	12.30576
824.947	39.86693
825.132	47.58113
825.317	30.22648
825.501	42.14882
825.686	31.00915
825.871	33.08528
826.056	37.29141
826.24	47.37472
826.425	44.36534
826.609	10.5326
826.794	7.38849
826.979	29.45466
827.163	21.68085
827.348	26.79116
827.532	7.01857
827.717	31.58527
827.901	26.23668
828.086	38.83458
828.27	4.72278
828.455	37.60657
828.639	42.98547
828.823	45.62563
829.008	18.07042
829.192	21.47424
829.376	30.46563
829.561	24.14914
829.745	11.87064
829.929	7.86721
830.114	25.42126
830.298	76.35402
830.482	19.94094
830.666	43.84382
830.85	23.01832
831.035	33.48745
831.219	-1.26245
831.403	2.85118
831.587	7.74753
831.771	52.41495
831.955	40.75798
832.139	29.91123
832.323	32.91137
832.507	14.79668
832.691	19.0057
832.875	13.31738
833.059	5.02745
833.243	11.35936
833.427	12.24049
833.611	30.72652
833.795	6.81185
833.979	41.09483
834.163	12.80614
834.346	47.10313
834.53	26.30192
834.714	49.48217
834.898	22.47464
835.082	28.43278
835.265	30.34606
835.449	16.89583
835.633	5.51708
835.816	34.42219
836	12.90404
836.184	44.44139
836.367	40.63845
836.551	40.33419
836.735	40.17119
836.918	3.93934
837.102	26.25843
837.285	19.59295
837.469	25.45388
837.652	42.97461
837.836	13.70897
838.019	31.60701
838.203	36.65021
838.386	21.71347
838.569	13.64371
838.753	60.31014
838.936	6.27872
839.12	21.94182
839.303	26.80203
839.486	37.57397
839.669	5.20154
839.853	29.37856
840.036	14.47037
840.219	38.54116
840.402	4.14608
840.586	35.2156
840.769	25.60609
840.952	10.29327
841.135	48.78695
841.318	22.42027
841.501	5.86526
841.684	6.86625
841.868	39.43226
842.051	30.08516
842.234	27.92182
842.417	10.52172
842.6	22.26804
842.783	36.43285
842.966	27.70439
843.149	78.61112
843.331	35.596
843.514	94.57909
843.697	106.679
843.88	120.4746
844.063	74.03161
844.246	51.88273
844.429	39.13885
844.611	40.9427
844.794	37.29141
844.977	33.41136
845.16	23.36627
845.342	38.25862
845.525	14.29634
845.708	23.56199
845.89	21.52861
846.073	14.2202
846.256	24.70366
846.438	33.81352
846.621	55.39085
846.803	42.71384
846.986	11.91415
847.168	36.41111
847.351	41.72506
847.533	32.49833
847.716	27.85659
847.898	54.48943
848.081	6.61601
848.263	24.8885
848.446	20.53905
848.628	40.87751
848.81	18.58156
848.993	29.28072
849.175	8.0848
849.357	13.30651
849.539	15.96048
849.722	14.00266
849.904	8.79197
850.086	31.54179
850.268	47.75494
850.451	63.83888
850.633	28.66107
850.815	20.88703
850.997	54.46771
851.179	23.46413
851.361	21.08277
851.543	24.42097
851.725	39.21492
851.907	20.09319
852.089	33.93308
852.271	27.20429
852.453	56.23795
852.635	37.50876
852.817	15.2535
852.999	20.83266
853.181	22.47464
853.363	20.13669
853.545	20.32156
853.727	32.84616
853.908	23.72509
854.09	25.94313
854.272	52.46926
854.454	29.00895
854.636	39.03018
854.817	25.83441
854.999	26.465
855.181	31.67223
855.362	21.92007
855.544	21.49599
855.726	29.0633
855.907	25.42126
856.089	20.29981
856.27	31.50918
856.452	19.56032
856.634	45.15846
856.815	29.36769
856.997	46.47303
857.178	9.89076
857.36	12.29488
857.541	5.08185
857.722	19.54945
857.904	23.26841
858.085	19.2232
858.267	20.16931
858.448	29.24811
858.629	23.86644
858.811	4.29842
858.992	31.6831
859.173	35.68294
859.354	23.21404
859.536	53.77261
859.717	-2.52497
859.898	38.47596
860.079	28.51975
860.26	34.88954
860.441	30.35693
860.623	19.85394
860.804	16.78707
860.985	44.41966
861.166	13.01281
861.347	9.77109
861.528	1.67592
861.709	38.95411
861.89	4.9404
862.071	39.30186
862.252	34.25915
862.433	20.39768
862.614	59.97353
862.794	17.74415
862.975	29.9982
863.156	61.5914
863.337	14.69879
863.518	48.47192
863.699	20.35418
863.879	33.67223
864.06	23.70334
864.241	27.78049
864.422	12.83877
864.602	21.85483
864.783	39.16059
864.964	21.98532
865.144	16.64568
865.325	21.75697
865.506	19.47332
865.686	29.69382
865.867	21.69172
866.047	34.35697
866.228	22.78998
866.408	4.32018
866.589	18.19005
866.769	45.01722
866.95	23.88819
867.13	19.54945
867.31	23.30103
867.491	35.72642
867.671	5.51708
867.852	19.08182
868.032	37.85652
868.212	32.16137
868.393	33.49832
868.573	18.02691
868.753	24.21438
868.933	29.59598
869.113	20.83266
869.294	27.33475
869.474	34.36784
869.654	17.60276
869.834	30.73739
870.014	19.98444
870.194	3.76523
870.374	44.52831
870.555	8.71581
870.735	23.43151
870.915	7.80193
871.095	23.33365
871.275	18.33143
871.455	40.34506
871.634	11.02214
871.814	32.09615
871.994	14.45949
872.174	38.75851
872.354	42.24662
872.534	28.6502
872.714	7.12737
872.894	18.3858
873.073	19.64732
873.253	44.51744
873.433	9.04219
873.613	6.2352
873.792	30.94393
873.972	29.15027
874.152	6.03935
874.331	30.30257
874.511	41.62726
874.691	16.5913
874.87	13.65458
875.05	33.48745
875.229	9.55351
875.409	25.2473
875.588	17.26561
875.768	29.48727
875.947	54.36996
876.127	45.12586
876.306	26.31279
876.486	18.85344
876.665	27.41086
876.844	26.06273
877.024	52.49098
877.203	26.95424
877.382	14.35072
877.562	16.97196
877.741	11.25058
877.92	26.60634
878.1	42.10536
878.279	27.71526
878.458	8.6179
878.637	33.48745
878.816	37.36748
878.996	23.57286
879.175	22.07231
879.354	16.83058
879.533	25.21468
879.712	26.44326
879.891	23.10531
880.07	36.01986
880.249	24.0839
880.428	33.87874
880.607	36.21549
880.786	2.86206
880.965	33.27006
881.144	46.58167
881.323	10.80457
881.502	21.30025
881.68	19.96269
881.859	18.19005
882.038	29.57424
882.217	26.16058
882.396	-8.90376
882.574	16.60218
882.753	15.0686
882.932	28.96546
883.111	43.7569
883.289	30.21561
883.468	18.13567
883.647	19.51682
883.825	14.05704
884.004	48.5371
884.182	0.15236
884.361	32.38963
884.539	8.38943
884.718	28.11751
884.896	0.6965
885.075	17.89641
885.253	36.16115
885.432	22.87697
885.61	3.17763
885.789	26.69331
885.967	21.38725
886.145	45.14759
886.324	17.18948
886.502	14.16581
886.68	22.28979
886.859	13.18685
887.037	25.60609
887.215	36.43285
887.393	35.96552
887.572	5.96319
887.75	24.45359
887.928	39.33446
888.106	34.80259
888.284	52.80597
888.462	27.51957
888.64	28.48713
888.819	24.14914
888.997	33.55266
889.175	6.94241
889.353	16.62393
889.531	27.55219
889.709	30.06342
889.887	9.23801
890.065	44.63696
890.242	37.13926
890.42	51.15498
890.598	16.43904
890.776	42.0293
890.954	19.78869
891.132	16.76532
891.309	15.63419
891.487	31.35699
891.665	11.52254
891.843	30.38954
892.02	13.35002
892.198	25.82354
892.376	17.12423
892.553	25.16032
892.731	45.91896
892.909	28.6502
893.086	48.36329
893.264	31.10698
893.441	18.72294
893.619	21.23501
893.797	28.67194
893.974	36.80236
894.151	17.18948
894.329	13.32826
894.506	-2.7753
894.684	25.0081
894.861	26.45413
895.039	19.14707
895.216	13.73072
895.393	31.48744
895.571	-4.51681
895.748	15.5363
895.925	47.14658
896.102	47.48336
896.28	11.78361
896.457	16.06924
896.634	9.69494
896.811	14.40511
896.988	4.96216
897.166	34.02004
897.343	16.56955
897.52	43.58306
897.697	12.75175
897.874	45.24537
898.051	34.68304
898.228	19.36457
898.405	14.18757
898.582	7.61697
898.759	19.91919
898.936	48.91731
899.113	38.41076
899.29	40.87751
899.467	41.21436
899.643	51.63291
899.82	37.97607
899.997	37.05232
900.174	-4.65832
900.351	38.45423
900.527	21.05014
900.704	31.42222
900.881	48.08085
901.058	14.61177
901.234	23.98605
901.411	44.05026
901.588	21.52861
901.764	27.85659
901.941	33.10702
902.117	31.07437
902.294	27.737
902.471	42.88768
902.647	4.11344
902.824	27.49783
903	22.51814
903.176	21.40899
903.353	33.47658
903.529	18.39668
903.706	24.55144
903.882	31.78093
904.058	5.34299
904.235	8.85724
904.411	7.73665
904.587	34.20481
904.764	17.06985
904.94	12.74087
905.116	19.10357
905.292	32.65051
905.469	20.44118
905.645	26.42151
905.821	34.63956
905.997	17.0916
906.173	4.40723
906.349	12.02293
906.525	24.22525
906.702	17.55926
906.878	15.29701
907.054	20.03881
907.23	25.45388
907.406	12.03381
907.582	40.17119
907.757	23.38802
907.933	14.91632
908.109	39.87779
908.285	25.67132
908.461	30.48737
908.637	17.02634
908.813	33.4005
908.988	26.55198
909.164	35.30255
909.34	18.67944
909.516	24.23613
909.691	13.71985
909.867	39.45399
910.043	20.59342
910.219	32.56355
910.394	34.99823
910.57	35.8025
910.745	46.91845
910.921	44.61523
911.097	-1.15362
911.272	-0.10883
911.448	42.83336
911.623	15.60156
911.799	-5.47469
911.974	6.4528
912.149	7.07297
912.325	27.75875
912.5	16.5913
912.676	10.97862
912.851	-1.20804
913.026	46.00587
913.202	1.94798
913.377	9.94515
913.552	3.42791
913.727	49.88409
913.903	20.53905
914.078	20.50642
914.253	22.44202
914.428	29.63946
914.603	-10.8852
914.779	4.886
914.954	12.58858
915.129	33.13963
915.304	26.67157
915.479	26.85639
915.654	15.93873
915.829	37.54137
916.004	-4.83247
916.179	45.35402
916.354	-0.94683
916.529	35.87857
916.704	10.04306
916.879	30.09603
917.053	45.16932
917.228	21.62648
917.403	23.09444
917.578	41.93151
917.753	16.23239
917.927	14.7858
918.102	8.10656
918.277	17.68977
918.452	18.55981
918.626	18.37493
918.801	35.20473
918.976	29.22637
919.15	11.71835
919.325	34.20481
919.499	29.10679
919.674	26.04098
919.849	17.7659
920.023	36.11767
920.198	29.1394
920.372	20.33243
920.547	27.41086
920.721	1.79563
920.895	20.50642
921.07	27.90008
921.244	30.35693
921.419	38.73677
921.593	12.79526
921.767	43.0398
921.942	21.98532
922.116	-0.92507
922.29	14.7858
922.464	35.67208
922.639	10.19536
922.813	18.99482
922.987	26.465
923.161	10.88072
923.335	29.94384
923.509	35.24821
923.683	30.07429
923.858	33.48745
924.032	43.89815
924.206	33.96569
924.38	-10.12309
924.554	17.84203
924.728	15.5363
924.902	59.01796
925.075	24.87763
925.249	27.28039
925.423	25.71481
925.597	38.0304
925.771	3.90669
925.945	15.69944
926.119	53.56625
926.292	41.48601
926.466	17.57014
926.64	23.25754
926.814	32.16137
926.987	13.66546
927.161	15.56893
927.335	8.28063
927.508	39.04105
927.682	3.21028
927.856	18.50543
928.029	35.67208
928.203	29.78078
928.376	37.9326
928.55	3.90669
928.723	7.42113
928.897	22.17017
929.07	27.06296
929.244	35.57426
929.417	-2.54673
929.59	28.96546
929.764	19.85394
929.937	42.94201
930.111	45.92982
930.284	2.23091
930.457	4.51604
930.63	2.91647
930.804	23.04007
930.977	21.38725
931.15	25.2473
931.323	46.24488
931.497	10.96774
931.67	27.94356
931.843	32.08528
932.016	6.27872
932.189	30.9548
932.362	25.3669
932.535	46.40784
932.708	24.4862
932.881	18.65769
933.054	24.30136
933.227	33.67223
933.4	-1.07743
933.573	33.19398
933.746	10.5326
933.919	23.70334
934.092	17.08072
934.264	23.48588
934.437	12.15347
934.61	14.97071
934.783	20.09319
934.956	7.14913
935.128	14.11143
935.301	44.90857
935.474	5.13626
935.646	-0.31561
935.819	7.54081
935.992	25.85616
936.164	-4.42973
936.337	7.83457
936.51	16.67831
936.682	34.36784
936.855	3.8414
937.027	51.30705
937.2	28.34581
937.372	7.46465
937.545	11.60956
937.717	30.94393
937.889	13.18685
938.062	33.30267
938.234	21.55036
938.406	5.21242
938.579	15.14474
938.751	46.21229
938.923	26.94337
939.096	39.44313
939.268	17.89641
939.44	26.63895
939.612	18.90782
939.784	35.46558
939.957	27.0086
940.129	27.14993
940.301	20.12581
940.473	20.03881
940.645	38.10647
940.817	38.81284
940.989	14.25283
941.161	13.80687
941.333	28.58497
941.505	16.68919
941.677	16.091
941.849	15.49279
942.021	17.39612
942.193	7.46465
942.365	10.16273
942.537	24.84501
942.708	31.16133
942.88	32.31355
943.052	-5.1046
943.224	14.86194
943.395	12.74087
943.567	16.93934
943.739	15.05772
943.911	11.392
944.082	19.74519
944.254	55.26053
944.425	-7.17284
944.597	29.11766
944.769	20.32156
944.94	28.31319
945.112	48.65659
945.283	47.98308
945.455	6.57249
945.626	37.72611
945.798	8.8246
945.969	25.0081
946.14	25.16032
946.312	30.46563
946.483	12.64297
946.655	17.01547
946.826	22.53988
946.997	33.10702
947.168	9.95603
947.34	19.84307
947.511	41.82285
947.682	21.6156
947.853	15.52542
948.025	37.74785
948.196	3.60201
948.367	20.88703
948.538	4.60309
948.709	28.12838
948.88	14.51388
949.051	33.05268
949.222	4.25489
949.393	34.16133
949.564	23.07269
949.735	14.04616
949.906	8.28063
950.077	16.10187
950.248	31.49831
950.419	8.1392
950.59	3.787
950.761	-3.46101
950.931	29.97646
951.102	46.74463
951.273	7.46465
951.444	24.94286
951.614	33.69396
951.785	13.0672
951.956	7.91072
952.126	43.94161
952.297	63.64345
952.468	11.81625
952.638	3.48232
952.809	23.82295
952.98	8.79197
953.15	29.15027
953.321	-2.96033
953.491	4.83159
953.662	28.56323
953.832	18.62506
954.002	4.08079
954.173	-11.5929
954.343	17.0481
954.514	5.57149
954.684	1.82827
954.854	27.31301
955.025	15.23175
955.195	32.28094
955.365	19.02745
955.535	6.75745
955.706	41.89891
955.876	26.49762
956.046	41.1057
956.216	26.62808
956.386	19.75607
956.557	30.56347
956.727	11.95766
956.897	29.18289
957.067	11.42463
957.237	20.09319
957.407	26.5411
957.577	34.74825
957.747	16.091
957.917	7.48641
958.087	9.71669
958.257	29.7373
958.427	19.06007
958.596	-5.20257
958.766	25.14944
958.936	-2.65557
959.106	34.88954
959.276	17.22211
959.445	5.53884
959.615	30.00907
959.785	35.3895
959.955	56.82438
960.124	19.73432
960.294	27.09557
960.464	3.69995
960.633	7.13825
960.803	5.01657
960.972	31.22655
961.142	4.43987
961.311	21.41987
961.481	7.69313
961.65	31.07437
961.82	23.64898
961.989	55.23881
962.159	20.3868
962.328	52.08911
962.498	28.71543
962.667	-1.59984
962.836	5.26683
963.006	18.51631
963.175	1.61063
963.344	40.07339
963.513	9.32505
963.683	-2.47055
963.852	-1.33864
964.021	30.11777
964.19	4.42899
964.359	10.57612
964.528	17.11335
964.698	5.77822
964.867	3.74347
965.036	40.77971
965.205	45.85378
965.374	28.48713
965.543	18.10304
965.712	11.838
965.881	22.4094
966.05	21.56123
966.219	19.03832
966.387	23.43151
966.556	20.28893
966.725	11.81625
966.894	27.51957
967.063	18.89694
967.232	35.66121
967.4	11.97942
967.569	10.0213
967.738	48.61314
967.906	7.76929
968.075	37.25881
968.244	-0.4462
968.412	9.67318
968.581	34.23742
968.75	31.07437
968.918	10.47821
969.087	12.45805
969.255	12.36015
969.424	31.00915
969.592	28.99808
969.761	20.62604
969.929	13.90476
970.098	26.08447
970.266	-7.79335
970.434	14.65528
970.603	25.81267
970.771	33.44397
970.939	16.05837
971.108	40.61671
971.276	-2.8406
971.444	31.05263
971.612	-18.10457
971.781	16.25414
971.949	62.47087
972.117	25.47562
972.285	28.42191
972.453	2.37238
972.621	2.25268
972.789	12.5777
972.957	31.10698
973.125	14.94896
973.293	14.67703
973.461	20.85441
973.629	42.93114
973.797	17.60276
973.965	24.89937
974.133	18.88607
974.301	18.14654
974.469	2.24179
974.637	12.09908
974.805	48.06998
974.972	17.82028
975.14	37.9326
975.308	10.65227
975.476	7.07297
975.643	13.9809
975.811	15.27526
975.979	32.98746
976.146	34.07438
976.314	25.43213
976.482	34.99823
976.649	18.11392
976.817	24.39922
976.984	30.07429
977.152	24.99723
977.319	32.52007
977.487	32.87877
977.654	22.49639
977.822	1.07739
977.989	11.7401
978.156	12.92579
978.324	15.27526
978.491	6.30048
978.658	-0.46797
978.826	21.34375
978.993	31.97658
979.16	24.50795
979.328	17.93991
979.495	36.44372
979.662	9.30329
979.829	24.37748
979.996	26.01924
980.163	24.42097
980.33	-1.81752
980.498	17.51576
980.665	27.68265
980.832	-4.60389
980.999	10.91335
981.166	15.42753
981.333	35.2156
981.5	27.18255
981.667	58.40986
981.833	12.68648
982	33.91135
982.167	14.32897
982.334	14.01353
982.501	20.64779
982.668	12.25137
982.834	9.77109
983.001	32.94398
983.168	33.31354
983.335	2.28532
983.501	31.95484
983.668	13.99178
983.835	11.68571
984.001	19.90832
984.168	7.27969
984.334	32.17224
984.501	23.40977
984.668	16.37378
984.834	2.28532
985.001	-9.46987
985.167	44.91944
985.334	0.4462
985.5	4.61397
985.666	6.86625
985.833	-5.31142
985.999	20.45205
986.165	23.37714
986.332	40.05166
986.498	26.42151
986.664	15.42753
986.831	10.61963
986.997	25.74743
987.163	-2.26375
987.329	15.7647
987.495	-5.21345
987.662	25.73656
987.828	8.24799
987.994	23.44239
988.16	31.04176
988.326	2.98176
988.492	18.01604
988.658	24.99723
988.824	30.92219
988.99	11.19619
989.156	2.89471
989.322	53.68572
989.488	31.44396
989.654	4.65749
989.82	28.21535
989.985	46.89672
990.151	38.83458
990.317	49.10198
990.483	3.13411
990.648	29.61772
990.814	15.28613
990.98	32.69398
991.146	21.31113
991.311	25.69307
991.477	34.86781
991.643	-2.82972
991.808	8.98779
991.974	-5.00663
992.139	21.26763
992.305	11.37024
992.47	6.38752
992.636	16.22151
992.801	33.73744
992.967	20.24543
993.132	19.78869
993.298	52.4584
993.463	16.8197
993.628	4.72278
993.794	10.05394
993.959	35.29168
994.124	-2.68823
994.29	17.17861
994.455	45.66908
994.62	23.24666
994.785	49.96013
994.95	3.48232
995.116	27.41086
995.281	14.06792
995.446	19.08182
995.611	-11.84332
995.776	21.39812
995.941	22.14843
996.106	15.02509
996.271	23.24666
996.436	29.05243
996.601	23.75771
996.766	19.3972
996.931	16.46079
997.096	23.42064
997.261	2.22003
997.425	36.09594
997.59	10.0757
997.755	15.36227
997.92	24.45359
998.085	16.85233
998.249	4.25489
998.414	9.76021
998.579	6.20256
998.744	19.63645
998.908	31.1722
999.073	40.33419
999.237	31.52005
999.402	10.51085
999.567	3.81964
999.731	20.97402
999.896	-6.92247
1000.06	47.26608
1000.225	21.16976
1000.389	28.05228
1000.553	25.66045
1000.718	44.79993
1000.882	-12.96479
1001.047	25.59522
1001.211	9.57527
1001.375	47.28781
1001.54	3.40615
1001.704	3.41703
1001.868	38.18255
1002.032	46.87499
1002.197	16.10187
1002.361	8.36767
1002.525	27.63916
1002.689	30.74826
1002.853	3.43879
1003.017	5.91966
1003.181	0.87062
1003.345	19.3537
1003.509	30.78087
1003.673	38.11734
1003.837	26.70418
1004.001	10.41294
1004.165	6.25696
1004.329	34.16133
1004.493	22.62687
1004.657	18.28793
1004.821	0.66385
1004.985	11.66395
1005.149	23.30103
1005.312	28.21535
1005.476	20.18019
1005.64	61.18965
1005.804	9.6623
1005.967	35.73729
1006.131	23.1923
1006.295	32.13963
1006.458	11.87064
1006.622	20.68042
1006.785	19.46245
1006.949	32.16137
1007.113	14.65528
1007.276	15.67769
1007.44	16.25414
1007.603	10.0213
1007.767	17.12423
1007.93	11.13092
1008.093	11.96854
1008.257	25.32341
1008.42	-13.7052
1008.584	32.52007
1008.747	3.3735
1008.91	33.95482
1009.073	-3.75489
1009.237	24.80152
1009.4	24.84501
1009.563	-6.48704
1009.726	20.41943
1009.889	64.37086
1010.053	24.33398
1010.216	28.17186
1010.379	19.86482
1010.542	42.00757
1010.705	23.58374
1010.868	39.31272
1011.031	23.27928
1011.194	23.90993
1011.357	11.97942
1011.52	6.99681
1011.683	4.86423
1011.846	24.19263
1012.009	14.62265
1012.171	27.42173
1012.334	15.28613
1012.497	46.27748
1012.66	12.19698
1012.823	34.38958
1012.985	40.82317
1013.148	23.44239
1013.311	7.50817
1013.473	25.74743
1013.636	-3.96169
1013.799	48.5371
1013.961	26.13883
1014.124	25.38864
1014.286	28.42191
1014.449	9.41208
1014.612	38.50856
1014.774	10.9895
1014.936	5.13626
1015.099	-0.21766
1015.261	-8.07639
1015.424	25.05159
1015.586	21.43074
1015.748	10.39118
1015.911	-3.47189
1016.073	70.39567
1016.235	28.95459
1016.398	18.37493
1016.56	23.87731
1016.722	14.03529
1016.884	14.28546
1017.047	34.10699
1017.209	21.2785
1017.371	7.72577
1017.533	5.06009
1017.695	42.95287
1017.857	10.18448
1018.019	44.28928
1018.181	20.28893
1018.343	18.41843
1018.505	15.38402
1018.667	-7.76069
1018.829	3.31909
1018.991	29.61772
1019.153	18.94044
1019.315	-12.43127
1019.477	19.25582
1019.638	3.60201
1019.8	-1.13185
1019.962	21.06102
1020.124	8.78109
1020.285	17.41788
1020.447	12.68648
1020.609	15.10123
1020.77	14.56826
1020.932	59.12655
1021.094	5.74558
1021.255	13.7416
1021.417	45.98415
1021.578	8.49822
1021.74	19.24495
1021.901	29.51988
1022.063	15.35139
1022.224	39.97559
1022.386	19.4407
1022.547	33.92222
1022.709	22.92046
1022.87	34.19394
1023.031	16.03661
1023.193	12.22961
1023.354	23.24666
1023.515	30.42215
1023.676	19.49507
1023.838	24.0839
1023.999	15.0686
1024.16	32.36789
1024.321	20.00619
1024.482	23.1488
1024.644	47.36386
1024.805	41.96411
1024.966	7.52993
1025.127	6.21344
1025.288	19.64732
1025.449	53.77261
1025.61	20.80003
1025.771	41.1057
1025.932	33.96569
1026.093	31.71571
1026.253	5.29947
1026.414	-12.24617
1026.575	4.23313
1026.736	7.33409
1026.897	4.14608
1027.058	34.21568
1027.218	23.79033
1027.379	2.08944
1027.54	17.8529
1027.7	20.4303
1027.861	26.96511
1028.022	34.16133
1028.182	13.38265
1028.343	14.0788
1028.504	7.23617
1028.664	18.37493
1028.825	8.22623
1028.985	34.02004
1029.146	7.29057
1029.306	12.43629
1029.466	38.88891
1029.627	36.0742
1029.787	13.70897
1029.948	13.63283
1030.108	13.51318
1030.268	56.20537
1030.429	8.74845
1030.589	34.02004
1030.749	15.65594
1030.909	16.12362
1031.07	27.55219
1031.23	21.40899
1031.39	-7.78246
1031.55	20.36505
1031.71	-3.05829
1031.87	22.70299
1032.03	25.69307
1032.19	12.33839
1032.35	16.00398
1032.51	35.17213
1032.67	7.976
1032.83	12.15347
1032.99	16.44991
1033.15	27.32388
1033.31	27.39998
1033.47	12.34927
1033.63	26.88901
1033.79	20.31068
1033.949	0.65297
1034.109	22.94221
1034.269	10.59787
1034.429	42.4422
1034.588	23.07269
1034.748	10.26064
1034.908	25.11683
1035.067	26.71506
1035.227	7.83457
1035.387	32.92224
1035.546	46.98363
1035.706	6.72481
1035.865	29.70469
1036.025	14.62265
1036.184	11.27234
1036.344	27.11732
1036.503	34.82433
1036.662	20.10406
1036.822	21.03927
1036.981	17.91816
1037.14	18.2988
1037.3	10.64139
1037.459	11.15268
1037.618	30.42215
1037.778	21.22413
1037.937	27.93269
1038.096	26.91075
1038.255	25.50824
1038.414	4.66838
1038.573	46.53821
1038.733	14.24195
1038.892	22.48551
1039.051	28.41103
1039.21	34.29176
1039.369	2.69884
1039.528	32.11789
1039.687	12.16435
1039.846	38.88891
1040.005	10.17361
1040.164	28.84588
1040.322	8.05216
1040.481	18.72294
1040.64	15.41665
1040.799	-2.10049
1040.958	38.17168
1041.116	22.52901
1041.275	11.07653
1041.434	28.42191
1041.593	-0.93595
1041.751	15.32964
1041.91	28.81327
1042.069	13.89388
1042.227	15.67769
1042.386	41.38821
1042.544	11.79449
1042.703	30.91132
1042.861	19.29932
1043.02	13.01281
1043.178	37.69351
1043.337	58.85508
1043.495	18.88607
1043.653	15.60156
1043.812	-0.55504
1043.97	25.5626
1044.129	8.33503
1044.287	30.35693
1044.445	24.31224
1044.603	9.37944
1044.762	-0.47885
1044.92	50.65532
1045.078	22.34416
1045.236	12.17522
1045.394	14.55739
1045.552	40.99703
