Data from deut_50ms_80_SR4014911__0__16-20-51-185.txt Node

Date: Sun Jul 13 16:20:51 EDT 2025
User: cryst
Spectrometer: SR401491
Trigger mode: 0
Integration Time (sec): 5.000000E-2
Scans to average: 80
Electric dark correction enabled: true
Nonlinearity correction enabled: true
Boxcar width: 0
XAxis mode: Wavelengths
Number of Pixels in Spectrum: 3648
>>>>>Begin Spectral Data<<<<<
344.912	-89.54846
345.129	-75.26028
345.347	-75.21935
345.565	-72.61367
345.783	22.44474
346.001	18.42115
346.219	7.57073
346.437	24.19807
346.654	55.15464
346.872	29.00895
347.09	-4.60389
347.308	46.35624
347.526	27.33747
347.743	16.04205
347.961	69.98863
348.179	30.76185
348.397	40.44829
348.614	64.77798
348.832	78.73862
349.05	81.26135
349.268	88.25866
349.485	72.28154
349.703	61.19508
349.921	101.94973
350.138	100.6758
350.356	96.10814
350.574	65.38866
350.791	81.4241
351.009	94.14259
351.227	84.19068
351.444	71.35897
351.662	80.92229
351.879	70.51778
352.097	90.84829
352.314	63.21731
352.532	86.74002
352.75	96.16236
352.967	96.46057
353.185	82.56331
353.402	81.93946
353.62	58.57546
353.837	94.57638
354.055	79.79657
354.272	107.19389
354.49	111.63776
354.707	111.39391
354.925	78.83357
355.142	87.60782
355.359	78.07399
355.577	117.58438
355.794	91.2279
356.012	121.85052
356.229	95.28127
356.446	89.04506
356.664	77.32796
356.881	110.94684
357.099	78.60299
357.316	97.7618
357.533	86.5095
357.751	69.03885
357.968	150.50456
358.185	113.04665
358.402	70.82984
358.62	107.45133
358.837	117.23223
359.054	74.88626
359.272	66.86779
359.489	86.52306
359.706	87.2824
359.923	102.18011
360.141	84.32629
360.358	109.68688
360.575	94.12904
360.792	90.50935
361.009	91.81086
361.226	96.85366
361.444	123.5568
361.661	101.33987
361.878	96.25725
362.095	86.00778
362.312	96.97565
362.529	107.47843
362.746	102.34273
362.963	78.23676
363.181	73.12267
363.398	101.16369
363.615	120.07643
363.832	77.51786
364.049	72.63427
364.266	140.49189
364.483	103.64369
364.7	92.78696
364.917	60.6386
365.134	95.43038
365.351	98.33107
365.568	103.35911
365.785	75.42888
366.002	72.71568
366.219	75.40175
366.436	110.55396
366.652	106.19121
366.869	90.75339
367.086	108.69784
367.303	71.52178
367.52	79.29473
367.737	130.36728
367.954	106.58415
368.171	89.51961
368.387	132.80403
368.604	86.29254
368.821	80.78666
369.038	88.1773
369.255	103.38621
369.471	70.65346
369.688	115.60684
369.905	115.48493
370.122	97.24674
370.339	95.52527
370.555	71.61675
370.772	82.35988
370.989	138.04229
371.205	94.77972
371.422	93.00387
371.639	73.21764
371.855	116.24346
372.072	86.56374
372.289	77.59925
372.505	132.37084
372.722	75.93079
372.939	103.86051
373.155	112.17965
373.372	84.89584
373.589	94.3866
373.805	99.03587
374.022	74.38433
374.238	68.94387
374.455	92.94964
374.671	105.8931
374.888	88.7061
375.104	62.24014
375.321	71.64388
375.537	87.55359
375.754	100.09302
375.97	94.52216
376.187	139.05735
376.403	101.99038
376.62	89.79077
376.836	82.3192
377.053	83.5533
377.269	91.71596
377.486	67.45128
377.702	54.08215
377.918	57.81532
378.135	94.15615
378.351	103.94181
378.568	93.45123
378.784	95.47105
379	97.46361
379.217	84.80091
379.433	74.56068
379.649	118.20742
379.865	78.87426
380.082	121.56614
380.298	78.33171
380.514	134.40133
380.731	90.90252
380.947	74.2758
381.163	107.01774
381.379	75.63236
381.596	84.92296
381.812	107.11259
382.028	113.84588
382.244	78.77931
382.46	81.38341
382.676	119.80557
382.893	104.98523
383.109	93.64102
383.325	88.23154
383.541	109.09075
383.757	63.85516
383.973	105.96086
384.189	126.41389
384.405	96.90788
384.622	96.74522
384.838	105.5679
385.054	112.40995
385.27	121.90469
385.486	98.50727
385.702	69.69013
385.918	110.07978
386.134	105.28334
386.35	103.65724
386.566	124.28802
386.782	125.39837
386.998	112.46414
387.214	108.26428
387.43	110.02559
387.646	142.2376
387.861	101.12304
388.077	107.11259
388.293	108.45396
388.509	113.72397
388.725	93.38345
388.941	113.04665
389.157	80.42047
389.373	109.34817
389.588	101.82776
389.804	110.97394
390.02	131.59922
390.236	79.09128
390.452	93.28855
390.668	103.41331
390.883	132.74988
391.099	107.51907
391.315	114.61801
391.531	88.42137
391.746	98.72413
391.962	113.99489
392.178	92.48871
392.393	102.95256
392.609	130.88172
392.825	95.10505
393.041	88.84169
393.256	116.31118
393.472	122.86618
393.687	128.30942
393.903	119.16903
394.119	112.12546
394.334	104.42965
394.55	135.61955
394.766	98.92744
394.981	138.69193
395.197	123.25888
395.412	144.53799
395.628	126.50867
395.843	142.87361
396.059	191.64044
396.274	132.26255
396.49	162.13637
396.705	129.04052
396.921	81.43766
397.136	130.69219
397.352	115.87774
397.567	107.74941
397.783	105.37819
397.998	121.34946
398.214	98.39884
398.429	94.11548
398.644	149.63875
398.86	112.89763
399.075	130.46205
399.29	106.5164
399.506	97.63982
399.721	108.29138
399.936	104.64646
400.152	104.66001
400.367	110.16107
400.582	110.64879
400.798	122.85263
401.013	82.92948
401.228	122.85263
401.444	124.82966
401.659	112.51832
401.874	157.17316
402.089	111.86807
402.304	120.64524
402.52	122.94743
402.735	108.69784
402.95	86.69934
403.165	125.89936
403.38	138.55659
403.596	103.68434
403.811	135.30823
404.026	162.17694
404.241	111.71905
404.456	104.91748
404.671	126.02122
404.886	117.57084
405.101	105.7034
405.316	119.90037
405.532	141.68278
405.747	130.67866
405.962	113.19566
406.177	124.59946
406.392	92.89542
406.607	139.04381
406.822	133.58915
407.037	142.86008
407.252	170.14056
407.467	171.57349
407.682	167.38262
407.896	180.69662
408.111	180.50743
408.326	195.15237
408.541	237.04568
408.756	244.86684
408.971	264.57206
409.186	259.88285
409.401	240.79471
409.616	133.00708
409.83	89.95347
410.045	109.72753
410.26	97.4365
410.475	86.29254
410.69	118.61374
410.905	126.68468
411.119	69.94793
411.334	107.80361
411.549	107.92555
411.764	135.21348
411.978	134.60437
412.193	123.25888
412.408	89.5874
412.623	82.99729
412.837	148.43467
413.052	120.99735
413.267	123.13701
413.481	101.09593
413.696	95.13216
413.911	94.06126
414.125	104.98523
414.34	84.66531
414.554	106.35381
414.769	128.67497
414.984	103.57593
415.198	87.78409
415.413	98.56149
415.627	116.77171
415.842	93.84436
416.056	131.13894
416.271	93.83081
416.485	118.96587
416.7	120.45564
416.914	99.59156
417.129	95.17283
417.343	114.25227
417.558	103.49462
417.772	134.30658
417.987	107.51907
418.201	111.63776
418.415	83.47194
418.63	106.85515
418.844	99.69998
419.059	121.83698
419.273	110.26945
419.487	150.28811
419.702	126.45451
419.916	155.13082
420.13	107.19389
420.345	102.62732
420.559	99.68643
420.773	103.31845
420.988	115.8642
421.202	139.89643
421.416	107.9391
421.63	110.79782
421.845	115.76938
422.059	117.90945
422.273	83.39057
422.487	110.10688
422.701	130.96295
422.916	147.44702
423.13	107.00419
423.344	96.58256
423.558	90.11617
423.772	100.52672
423.986	107.34293
424.201	101.35343
424.415	138.92201
424.629	120.15769
424.843	118.05843
425.057	140.23476
425.271	87.05189
425.485	84.9094
425.699	81.45122
425.913	129.40606
426.127	110.71653
426.341	89.95347
426.555	116.89361
426.769	134.38779
426.983	137.83928
427.197	129.83929
427.411	116.60917
427.625	141.07381
427.839	93.83081
428.053	110.02559
428.267	93.53257
428.481	124.49114
428.695	100.03881
428.908	74.98122
429.122	114.88892
429.336	116.7988
429.55	106.44865
429.764	141.08734
429.978	178.89926
430.191	185.26382
430.405	232.27103
430.619	226.40277
430.833	295.19488
431.047	377.79982
431.26	503.12727
431.474	617.9125
431.688	672.35349
431.901	725.88205
432.115	880.20472
432.329	984.63446
432.543	1064.93692
432.756	1305.79918
432.97	1329.46517
433.184	920.39943
433.397	408.51979
433.611	153.37239
433.824	145.17394
434.038	118.54602
434.252	119.88683
434.465	119.85974
434.679	97.21963
434.892	134.64498
435.106	86.12982
435.319	88.97727
435.533	128.28234
435.747	113.95425
435.96	94.16971
436.174	138.86787
436.387	135.09166
436.601	133.54854
436.814	135.43005
437.027	89.95347
437.241	123.59742
437.454	104.68711
437.668	130.82757
437.881	149.46287
438.095	106.58415
438.308	120.48272
438.521	155.57717
438.735	121.33591
438.948	125.49315
439.161	115.06502
439.375	113.30403
439.588	134.30658
439.801	139.72049
440.015	127.55122
440.228	134.65851
440.441	159.05306
440.654	171.66812
440.868	154.9144
441.081	96.36569
441.294	148.79996
441.507	126.76592
441.721	106.38091
441.934	133.92756
442.147	108.77913
442.36	109.67333
442.573	123.71929
442.786	102.89836
443	146.85171
443.213	117.48957
443.426	136.7159
443.639	141.03321
443.852	133.87342
444.065	148.54291
444.278	141.49332
444.491	134.45547
444.704	135.57894
444.917	136.10682
445.13	139.39569
445.343	112.84345
445.556	179.56146
445.769	182.16955
445.982	149.90932
446.195	149.53052
446.408	138.39418
446.621	150.99158
446.834	129.73099
447.047	123.59742
447.26	124.76196
447.473	135.2947
447.686	133.48086
447.899	137.18962
448.111	154.0893
448.324	134.36072
448.537	135.82258
448.75	132.70927
448.963	120.34729
449.176	158.79611
449.388	156.55101
449.601	134.72619
449.814	130.28605
450.027	124.65363
450.239	133.75159
450.452	119.71077
450.665	108.42686
450.878	129.66329
451.09	142.48118
451.303	125.2765
451.516	129.04052
451.728	147.39291
451.941	104.64646
452.154	139.72049
452.366	163.35337
452.579	122.47346
452.792	166.82829
453.004	137.05427
453.217	124.4776
453.429	133.0883
453.642	141.3174
453.854	155.30666
454.067	172.95229
454.28	167.58542
454.492	95.41683
454.705	110.36429
454.917	131.03064
455.13	177.39912
455.342	165.9765
455.555	106.63835
455.767	176.72336
455.979	126.57637
456.192	150.01755
456.404	119.99517
456.617	134.86155
456.829	123.787
457.041	157.29489
457.254	141.62865
457.466	117.34058
457.679	126.50867
457.891	158.79611
458.103	145.60693
458.315	138.29944
458.528	113.31758
458.74	137.92048
458.952	124.8432
459.165	127.97094
459.377	102.69508
459.589	113.12793
459.801	131.40969
460.014	134.21182
460.226	135.07812
460.438	147.18996
460.65	92.48871
460.862	143.2525
461.075	124.7755
461.287	136.70237
461.499	78.01974
461.711	85.73658
461.923	114.11681
462.135	148.16409
462.347	108.41332
462.559	133.87342
462.771	130.20483
462.983	113.4124
463.196	135.37591
463.408	145.47162
463.62	124.92444
463.832	151.81677
464.044	142.77889
464.256	149.5711
464.468	119.33155
464.68	139.82876
464.891	146.8923
465.103	118.1397
465.315	148.7729
465.527	108.90107
465.739	99.21206
465.951	120.88901
466.163	111.43455
466.375	101.32632
466.587	140.38363
466.799	120.18478
467.01	108.64365
467.222	116.04028
467.434	100.75711
467.646	123.09638
467.858	134.14414
468.069	138.19117
468.281	93.41056
468.493	92.51583
468.705	98.73769
468.916	116.64981
469.128	82.82098
469.34	96.66389
469.551	119.98163
469.763	80.52897
469.975	102.74929
470.186	120.36084
470.398	104.19928
470.61	107.73586
470.821	82.72605
471.033	96.93499
471.245	133.6433
471.456	97.87024
471.668	114.45546
471.879	102.41049
472.091	131.95119
472.302	149.16524
472.514	141.30386
472.725	116.44663
472.937	105.37819
473.148	90.45512
473.36	93.13943
473.571	124.64009
473.783	112.11192
473.994	129.10821
474.206	88.81457
474.417	108.44041
474.629	106.6248
474.84	138.98968
475.051	130.2319
475.263	106.12346
475.474	107.01774
475.685	129.97468
475.897	96.37924
476.108	135.1458
476.319	88.20442
476.531	109.75462
476.742	132.31669
476.953	142.57591
477.165	163.74551
477.376	106.31316
477.587	117.6521
477.798	121.66093
478.01	87.32308
478.221	117.13742
478.432	113.16857
478.643	113.50723
478.854	101.71934
479.065	181.64255
479.277	133.22367
479.488	136.87832
479.699	149.21936
479.91	138.61073
480.121	141.24973
480.332	143.96968
480.543	130.08298
480.754	90.69916
480.965	124.17969
481.176	141.60158
481.387	167.31502
481.598	134.67205
481.809	171.76275
482.02	228.10266
482.231	489.43674
482.442	1045.69304
482.653	2203.06722
482.864	3620.06973
483.075	5591.11371
483.286	7902.35499
483.497	10703.63476
483.708	12821.01203
483.919	14658.24947
484.13	16261.65295
484.341	18610.87058
484.551	21763.7724
484.762	24615.12399
484.973	25435.79402
485.184	17430.61886
485.395	5653.48903
485.605	1585.84554
485.816	680.80898
486.027	350.62189
486.238	255.11201
486.449	276.35909
486.659	215.51292
486.87	198.97447
487.081	188.89813
487.291	183.31812
487.502	161.40615
487.713	138.29944
487.923	156.57806
488.134	128.91867
488.345	195.4225
488.555	165.17877
488.766	152.07379
488.976	176.35844
489.187	167.81525
489.398	147.25761
489.608	177.76403
489.819	137.81221
490.029	133.33196
490.24	176.18273
490.45	172.30345
490.661	159.97268
490.871	152.10085
491.082	100.81133
491.292	128.56666
491.503	159.12068
491.713	165.31398
491.924	144.18618
492.134	131.09833
492.344	142.84655
492.555	152.07379
492.765	149.70639
492.975	156.87561
493.186	168.96441
493.396	186.088
493.607	124.17969
493.817	175.07442
494.027	137.06781
494.237	124.57238
494.448	138.88141
494.658	158.06579
494.868	129.05406
495.078	154.40041
495.289	179.29118
495.499	133.96817
495.709	114.06262
495.919	151.11333
496.129	142.34586
496.34	111.84097
496.55	98.94099
496.76	166.92293
496.97	151.38388
497.18	145.64752
497.39	129.55499
497.6	160.70295
497.81	163.39394
498.021	157.72768
498.231	170.19463
498.441	157.71415
498.651	130.73281
498.861	109.05011
499.071	138.84081
499.281	161.29796
499.491	144.21324
499.701	143.68552
499.911	145.82341
500.121	143.56373
500.331	149.69286
500.54	195.94925
500.75	142.90068
500.96	155.1714
501.17	126.58991
501.38	147.96115
501.59	150.11224
501.8	127.14504
502.01	106.15056
502.219	135.49773
502.429	169.1672
502.639	178.14244
502.849	153.52119
503.059	133.84634
503.268	147.43349
503.478	124.59946
503.688	152.00615
503.898	135.3353
504.107	127.21273
504.317	194.6121
504.527	147.8935
504.736	163.35337
504.946	131.89704
505.156	160.89227
505.365	125.56085
505.575	140.91141
505.785	128.10633
505.994	156.29403
506.204	134.9157
506.413	137.60919
506.623	117.774
506.832	144.83567
507.042	138.13703
507.251	169.20775
507.461	158.39038
507.67	152.80426
507.88	126.40035
508.089	139.43629
508.299	145.87754
508.508	145.95872
508.718	111.4481
508.927	140.15356
509.137	154.44099
509.346	155.04966
509.555	124.17969
509.765	124.26094
509.974	233.9436
510.184	147.43349
510.393	122.487
510.602	133.71098
510.812	165.54384
511.021	141.93989
511.23	180.14256
511.439	131.81582
511.649	126.45451
511.858	143.48254
512.067	147.82585
512.276	150.34223
512.486	251.14918
512.695	150.50456
512.904	127.34813
513.113	134.03585
513.322	145.28219
513.531	157.78178
513.741	159.89154
513.95	119.90037
514.159	146.90583
514.368	123.82762
514.577	123.19118
514.786	112.93827
514.995	117.71983
515.204	153.04775
515.413	109.1585
515.622	126.57637
515.831	137.2979
516.04	127.90325
516.249	106.35381
516.458	121.98595
516.667	146.91936
516.876	156.94324
517.085	127.11796
517.294	146.14814
517.503	121.56614
517.712	135.61955
517.921	136.48581
518.13	160.21611
518.339	138.40772
518.547	198.12366
518.756	113.73751
518.965	138.92201
519.174	135.49773
519.383	142.88714
519.591	116.74462
519.8	108.31847
520.009	133.30489
520.218	129.71745
520.426	115.24111
520.635	159.66164
520.844	133.00708
521.053	155.68538
521.261	153.00717
521.47	153.77819
521.679	126.0483
521.887	147.48761
522.096	126.793
522.304	121.57968
522.513	107.9933
522.722	123.787
522.93	152.03321
523.139	143.48254
523.347	102.65443
523.556	112.59961
523.764	106.10991
523.973	133.48086
524.182	115.5662
524.39	154.44099
524.598	107.9933
524.807	110.48622
525.015	114.59092
525.224	136.63469
525.432	126.31911
525.641	119.91391
525.849	139.51749
526.057	133.00708
526.266	148.61055
526.474	120.02226
526.683	112.95182
526.891	163.90777
527.099	115.59329
527.308	138.55659
527.516	107.70876
527.724	159.70221
527.932	110.73008
528.141	150.99158
528.349	173.22264
528.557	125.9129
528.765	112.88409
528.974	105.85245
529.182	107.912
529.39	126.2514
529.598	100.03881
529.806	111.4752
530.015	143.07659
530.223	141.00614
530.431	102.68153
530.639	91.62106
530.847	100.94685
531.055	139.12502
531.263	124.87028
531.471	87.1468
531.679	99.1714
531.887	135.66016
532.095	134.03585
532.303	152.03321
532.511	104.70067
532.719	113.35822
532.927	113.7917
533.135	140.66782
533.343	161.70365
533.551	140.32949
533.759	126.98256
533.967	158.17399
534.175	126.88778
534.383	155.23903
534.591	143.5502
534.798	149.3817
535.006	106.02861
535.214	128.91867
535.422	111.31263
535.63	159.32354
535.837	104.63291
536.045	132.41145
536.253	121.75573
536.461	133.72452
536.668	119.941
536.876	153.39945
537.084	148.79996
537.292	149.13818
537.499	151.24861
537.707	135.89026
537.915	143.69905
538.122	160.64885
538.33	157.66006
538.538	145.95872
538.745	145.20101
538.953	178.02081
539.16	132.64158
539.368	128.49897
539.575	114.37418
539.783	133.12891
539.99	172.16828
540.198	142.63004
540.406	136.60762
540.613	139.90996
540.82	130.01529
541.028	148.59702
541.235	147.20349
541.443	158.99897
541.65	185.16924
541.858	158.76906
542.065	127.83555
542.272	136.43167
542.48	194.66613
542.687	125.03277
542.895	158.07932
543.102	134.9157
543.309	143.73964
543.516	156.60511
543.724	141.26327
543.931	135.48419
544.138	145.53927
544.346	130.73281
544.553	141.00614
544.76	141.91283
544.967	131.16602
545.174	148.10997
545.382	135.61955
545.589	155.87474
545.796	171.20851
546.003	119.20966
546.21	136.7159
546.417	180.69662
546.624	146.51346
546.832	143.17131
547.039	133.33196
547.246	167.15278
547.453	136.85125
547.66	122.40575
547.867	141.12794
548.074	142.35939
548.281	132.95293
548.488	134.67205
548.695	126.07538
548.902	136.53995
549.109	123.66513
549.316	113.48013
549.523	112.07127
549.73	133.76513
549.936	134.75326
550.143	127.70016
550.35	105.01233
550.557	115.85065
550.764	105.77115
550.971	143.60433
551.178	130.36728
551.384	149.23289
551.591	160.17554
551.798	159.55345
552.005	139.34155
552.211	142.35939
552.418	146.66229
552.625	107.12614
552.832	139.09795
553.038	133.31842
553.245	160.35134
553.452	148.25879
553.658	122.35158
553.865	125.31712
554.072	139.72049
554.278	142.87361
554.485	172.65491
554.691	170.6137
554.898	124.59946
555.105	151.89793
555.311	127.83555
555.518	156.55101
555.724	154.98203
555.931	113.14147
556.137	119.91391
556.344	139.62576
556.55	135.78197
556.757	143.86143
556.963	124.58592
557.17	143.06306
557.376	153.65645
557.582	186.89864
557.789	137.41971
557.995	129.29776
558.202	124.81612
558.408	138.86787
558.614	125.12755
558.821	141.92636
559.027	147.2982
559.233	145.22807
559.439	172.8847
559.646	138.8002
559.852	159.59402
560.058	155.92884
560.264	152.00615
560.471	145.94519
560.677	163.36689
560.883	184.34503
561.089	174.723
561.295	138.97614
561.502	130.06944
561.708	133.46732
561.914	159.35059
562.12	153.29123
562.326	148.84055
562.532	170.03241
562.738	167.47726
562.944	137.86635
563.15	155.07672
563.356	126.10246
563.562	146.09402
563.768	153.64293
563.974	106.52995
564.18	152.35786
564.386	137.43324
564.592	121.20049
564.798	135.68723
565.004	175.39881
565.21	109.17204
565.416	162.86658
565.622	146.39169
565.828	175.68265
566.034	174.08772
566.239	133.96817
566.445	179.4128
566.651	168.2614
566.857	202.74204
567.063	186.75003
567.268	182.8587
567.474	190.92449
567.68	194.30144
567.886	220.034
568.091	218.36061
568.297	209.53319
568.503	220.69523
568.708	231.09747
568.914	243.20839
569.12	255.28723
569.325	220.60077
569.531	237.15357
569.737	189.78975
569.942	207.38666
570.148	259.42467
570.353	290.96833
570.559	273.92125
570.765	248.70921
570.97	270.33821
571.176	304.18436
571.381	228.42644
571.587	202.5665
571.792	207.41367
571.998	227.53604
572.203	219.2378
572.408	294.91223
572.614	306.47166
572.819	293.29704
573.025	261.20346
573.23	262.44315
573.435	251.56706
573.641	272.7494
573.846	223.09712
574.051	263.23814
574.257	276.54764
574.462	290.20102
574.667	261.28431
574.873	255.32766
575.078	297.36176
575.283	281.77277
575.488	301.31825
575.694	325.15353
575.899	259.38424
576.104	296.36582
576.309	301.80269
576.514	326.5115
576.719	386.01277
576.925	440.57474
577.13	380.04116
577.335	340.8269
577.54	328.00385
577.745	282.85
577.95	297.26755
578.155	270.78274
578.36	245.94545
578.565	265.77119
578.77	336.47253
578.975	359.9436
579.18	301.81614
579.385	331.01522
579.59	382.69834
579.795	312.76753
580	245.41963
580.205	284.12916
580.41	381.77238
580.615	573.25104
580.82	583.25227
581.024	498.24804
581.229	470.84325
581.434	429.13425
581.639	335.24943
581.844	300.86073
582.049	256.23067
582.253	326.71317
582.458	267.98069
582.663	225.83611
582.868	216.7546
583.072	240.64638
583.277	274.06942
583.482	334.67146
583.686	332.69553
583.891	314.70445
584.096	323.51312
584.3	367.59758
584.505	303.57887
584.71	342.29165
584.914	326.12159
585.119	329.6709
585.323	308.6646
585.528	241.9409
585.733	254.4381
585.937	293.06822
586.142	222.89472
586.346	312.41779
586.551	275.32203
586.755	297.81934
586.959	373.61195
587.164	352.44886
587.368	291.04909
587.573	343.78321
587.777	472.62282
587.982	1624.38257
588.186	3773.83027
588.39	1627.51039
588.595	1012.852
588.799	2064.97347
589.003	864.93661
589.208	349.19786
589.412	297.91355
589.616	269.47605
589.82	274.76981
590.025	199.15003
590.229	222.84075
590.433	227.48208
590.637	217.84778
590.842	278.43311
591.046	294.03735
591.25	272.25102
591.454	200.51397
591.658	242.83085
591.862	324.48124
592.067	496.77743
592.271	411.96544
592.475	339.68461
592.679	349.47998
592.883	314.31438
593.087	325.74513
593.291	285.28708
593.495	245.86456
593.699	225.78214
593.903	314.78515
594.107	396.27581
594.311	377.50454
594.515	348.33803
594.719	299.2055
594.923	279.40273
595.127	306.956
595.33	294.14503
595.534	238.77191
595.738	308.48971
595.942	281.8805
596.146	229.72152
596.35	294.76418
596.553	256.12285
596.757	276.817
596.961	374.22943
597.165	295.96205
597.369	215.29697
597.572	245.59491
597.776	226.71307
597.98	309.76774
598.183	373.55826
598.387	322.6122
598.591	273.89432
598.794	265.29963
598.998	272.46654
599.202	308.67806
599.405	346.00024
599.609	316.89678
599.812	357.28439
600.016	332.82995
600.22	373.49114
600.423	369.79941
600.627	351.95182
600.83	272.65512
601.034	359.93017
601.237	381.32952
601.441	235.58909
601.644	265.32658
601.847	335.4376
602.051	285.81217
602.254	291.76253
602.458	317.75752
602.661	379.19564
602.864	297.37522
603.068	277.6116
603.271	246.61956
603.475	240.68683
603.678	268.65429
603.881	257.05279
604.084	215.9988
604.288	240.83516
604.491	304.49383
604.694	304.77638
604.897	232.16311
605.101	274.08289
605.304	283.6175
605.507	248.07559
605.71	207.45417
605.913	290.44333
606.116	291.52024
606.32	284.84277
606.523	262.48357
606.726	254.73462
606.929	279.20073
607.132	273.96166
607.335	279.82019
607.538	245.905
607.741	217.88826
607.944	205.5235
608.147	197.00271
608.35	240.97001
608.553	238.04367
608.756	240.63289
608.959	242.91175
609.162	309.60631
609.365	285.21976
609.568	274.20411
609.771	207.95369
609.973	259.27644
610.176	257.05279
610.379	218.94091
610.582	217.61835
610.785	268.27708
610.988	240.43062
611.19	208.02119
611.393	205.28047
611.596	196.23287
611.799	198.55582
612.001	252.37583
612.204	215.48593
612.407	225.37738
612.609	234.88774
612.812	253.96635
613.015	247.10491
613.217	242.6151
613.42	198.66386
613.623	223.01616
613.825	245.68928
614.028	271.01175
614.23	226.79402
614.433	199.58218
614.636	220.034
614.838	271.73915
615.041	283.05198
615.243	189.39798
615.446	169.78907
615.648	156.83504
615.85	204.14631
616.053	165.61144
616.255	201.43222
616.458	192.51846
616.66	181.6966
616.863	157.22726
617.065	194.28794
617.267	202.25593
617.47	177.57482
617.672	191.85657
617.874	168.2614
618.077	181.88578
618.279	182.26414
618.481	212.04402
618.683	142.84655
618.886	146.68935
619.088	240.65986
619.29	226.11944
619.492	171.43832
619.694	171.74923
619.897	182.26414
620.099	155.30666
620.301	117.01551
620.503	132.62805
620.705	163.35337
620.907	157.82235
621.109	144.42974
621.311	174.83113
621.513	192.09972
621.715	196.35443
621.917	203.45768
622.119	195.70613
622.321	172.58732
622.523	187.00673
622.725	149.12465
622.927	152.84484
623.129	174.08772
623.331	158.47153
623.533	129.01344
623.735	174.1553
623.937	181.25067
624.139	150.74807
624.341	170.53259
624.542	136.64823
624.744	122.96097
624.946	165.89538
625.148	150.51809
625.35	165.76017
625.551	135.51127
625.753	115.1192
625.955	132.96647
626.156	165.2599
626.358	162.71783
626.56	146.72994
626.762	183.23705
626.963	173.14153
627.165	143.07659
627.366	165.36807
627.568	167.73413
627.77	141.84517
627.971	175.03387
628.173	170.49204
628.374	131.07125
628.576	144.4974
628.777	186.75003
628.979	121.14632
629.18	112.30157
629.382	113.24985
629.583	166.61197
629.785	161.87944
629.986	106.5435
630.188	132.4656
630.389	115.37656
630.591	152.07379
630.792	105.55435
630.993	113.37176
631.195	108.92817
631.396	115.74229
631.597	112.1661
631.799	117.05615
632	148.02879
632.201	124.28802
632.402	136.52641
632.604	154.07578
632.805	122.41929
633.006	144.30796
633.207	152.45256
633.409	160.87875
633.61	105.25624
633.811	113.57496
634.012	149.99049
634.213	136.24217
634.414	125.60147
634.615	131.93765
634.816	156.13172
635.017	161.69012
635.219	153.12891
635.42	158.63382
635.621	129.82576
635.822	175.57452
636.023	143.10365
636.224	140.72195
636.425	134.32011
636.626	128.76975
636.826	101.20435
637.027	150.09872
637.228	115.21402
637.429	118.38349
637.63	120.0358
637.831	106.74675
638.032	112.51832
638.233	112.50478
638.433	115.39011
638.634	133.44025
638.835	124.2474
639.036	130.77342
639.237	97.7347
639.437	86.97053
639.638	104.29414
639.839	116.29764
640.039	91.85154
640.24	137.93402
640.441	98.12776
640.641	69.92079
640.842	109.76817
641.043	93.65457
641.243	84.89584
641.444	97.99222
641.645	136.64823
641.845	93.07165
642.046	99.74064
642.246	89.22133
642.447	56.15921
642.647	118.99296
642.848	141.06028
643.048	136.13389
643.249	113.27694
643.449	91.43126
643.65	80.9901
643.85	79.29473
644.05	130.9088
644.251	97.66692
644.451	99.02231
644.651	85.92642
644.852	102.1259
645.052	101.54316
645.252	91.21434
645.453	75.71375
645.653	93.275
645.853	86.75358
646.054	89.43826
646.254	80.84091
646.454	56.43071
646.654	75.30679
646.854	89.87212
647.055	116.56854
647.255	70.20572
647.455	137.13548
647.655	96.60967
647.855	113.48013
648.055	101.96328
648.255	85.20773
648.455	108.08814
648.655	105.03943
648.856	105.39174
649.056	109.67333
649.256	128.25526
649.456	93.53257
649.656	90.88896
649.856	110.97394
650.055	98.29041
650.255	137.86635
650.455	133.90049
650.655	146.0399
650.855	153.88641
651.055	211.73356
651.255	205.82054
651.455	234.61799
651.655	175.75023
651.854	177.22342
652.054	132.5739
652.254	161.96058
652.454	211.00462
652.654	213.08339
652.853	292.38173
653.053	395.6722
653.253	768.95932
653.452	2232.83795
653.652	8307.68902
653.852	21147.28756
654.051	42382.01435
654.251	63421.12864
654.451	63421.12864
654.65	63421.12864
654.85	63421.12864
655.049	63421.12864
655.249	63421.12864
655.449	63421.12864
655.648	63421.12864
655.848	63421.12864
656.047	63421.12864
656.247	63421.12864
656.446	63421.12864
656.645	63421.12864
656.845	63421.12864
657.044	13857.13946
657.244	4538.1952
657.443	3183.3161
657.643	2346.63128
657.842	1903.52743
658.041	1560.52225
658.241	1426.35792
658.44	1211.65554
658.639	1094.86869
658.839	1021.66068
659.038	926.32644
659.237	848.3656
659.436	791.50448
659.636	756.33498
659.835	699.22813
660.034	677.41907
660.233	644.7118
660.432	603.12549
660.631	598.59478
660.831	579.54551
661.03	538.28873
661.229	535.33786
661.428	503.3946
661.627	491.01467
661.826	499.63836
662.025	461.06045
662.224	441.60604
662.423	421.24129
662.622	384.30864
662.821	403.77298
663.02	419.04322
663.219	368.8999
663.418	393.53934
663.617	375.89387
663.816	365.00619
664.015	329.13315
664.214	325.61067
664.412	314.00502
664.611	343.28603
664.81	317.30026
665.009	342.80228
665.208	296.50041
665.406	264.15438
665.605	292.83939
665.804	276.15707
666.003	285.52943
666.201	248.27781
666.4	251.14918
666.599	262.82044
666.798	250.60998
666.996	263.45373
667.195	229.4652
667.394	232.298
667.592	265.59604
667.791	236.84338
667.989	245.29829
668.188	243.86909
668.386	277.43652
668.585	232.55429
668.783	241.64424
668.982	249.30237
669.18	252.44323
669.379	222.7463
669.577	193.15333
669.776	208.6287
669.974	249.78767
670.173	209.2632
670.371	193.50452
670.57	201.28368
670.768	206.63061
670.966	226.15992
671.165	215.40495
671.363	212.58396
671.561	214.95955
671.76	224.86468
671.958	246.49822
672.156	210.77514
672.354	194.70665
672.553	172.93877
672.751	147.2982
672.949	187.19587
673.147	214.1767
673.345	163.97537
673.543	199.59568
673.742	148.85408
673.94	158.07932
674.138	173.39836
674.336	169.81611
674.534	175.37178
674.732	200.77054
674.93	173.912
675.128	131.50446
675.326	152.95306
675.524	150.95099
675.722	194.92276
675.92	143.5908
676.118	138.81374
676.316	172.51974
676.514	158.8502
676.712	134.52315
676.91	165.09765
677.108	167.46374
677.305	187.07428
677.503	160.74352
677.701	160.58124
677.899	145.56633
678.097	161.43319
678.295	130.09652
678.492	130.96295
678.69	171.00574
678.888	140.32949
679.085	185.12871
679.283	144.83567
679.481	119.4399
679.679	138.28591
679.876	130.32667
680.074	155.92884
680.271	129.31129
680.469	130.11006
680.667	147.08172
680.864	139.20622
681.062	154.45452
681.259	155.78006
681.457	112.93827
681.654	152.39845
681.852	110.20171
682.049	121.62031
682.247	111.75969
682.444	121.70156
682.642	130.94941
682.839	107.57327
683.037	147.04113
683.234	160.24315
683.431	136.36399
683.629	100.32343
683.826	114.17099
684.023	134.06293
684.221	162.70431
684.418	170.78944
684.615	153.99462
684.813	171.30313
685.01	164.44863
685.207	136.74297
685.404	97.78891
685.601	161.96058
685.799	164.61088
685.996	132.07303
686.193	136.03915
686.39	118.81689
686.587	130.66512
686.784	133.75159
686.981	135.30823
687.179	136.36399
687.376	91.75664
687.573	120.50981
687.77	130.92234
687.967	116.6769
688.164	123.69221
688.361	108.79268
688.558	109.71398
688.755	96.17592
688.952	151.9791
689.148	117.86881
689.345	101.25856
689.542	110.14752
689.739	115.37656
689.936	109.90365
690.133	120.92964
690.33	106.679
690.526	122.40575
690.723	167.84229
690.92	130.47559
691.117	94.14259
691.314	99.3476
691.51	91.39059
691.707	100.63514
691.904	106.96355
692.1	154.45452
692.297	97.46361
692.494	90.76694
692.69	161.13569
692.887	128.56666
693.084	122.96097
693.28	84.16355
693.477	97.42295
693.673	106.09636
693.87	109.5514
694.066	84.80091
694.263	104.02312
694.459	91.60751
694.656	116.28409
694.852	102.84415
695.049	103.54883
695.245	101.46185
695.442	109.5785
695.638	63.89587
695.834	92.10912
696.031	106.34026
696.227	113.27694
696.423	116.41954
696.62	125.18172
696.816	127.97094
697.012	89.19421
697.209	115.40365
697.405	122.59534
697.601	150.63985
697.797	97.49072
697.994	93.47834
698.19	76.60904
698.386	112.24739
698.582	117.06969
698.778	79.38967
698.974	78.63011
699.17	79.78301
699.367	99.97105
699.563	135.05105
699.759	82.97016
699.955	87.79765
700.151	81.19354
700.347	97.45006
700.543	109.1314
700.739	135.84965
700.935	103.02032
701.131	76.59548
701.327	78.04687
701.523	123.34013
701.718	88.74678
701.914	96.10814
702.11	128.95929
702.306	118.45121
702.502	103.2507
702.698	88.04171
702.894	85.37045
703.089	78.6708
703.285	86.5773
703.481	84.25848
703.677	108.90107
703.872	81.34273
704.068	88.42137
704.264	77.65351
704.459	57.39451
704.655	73.17694
704.851	88.05527
705.046	55.94201
705.242	58.73835
705.438	37.75872
705.633	71.03335
705.829	64.08587
706.024	85.57386
706.22	113.31758
706.415	106.42156
706.611	88.48916
706.806	116.36536
707.002	93.38345
707.197	110.81137
707.393	95.0915
707.588	76.02575
707.784	93.7088
707.979	73.61106
708.174	62.78302
708.37	79.48462
708.565	89.16709
708.76	81.35629
708.956	77.35509
709.151	87.26884
709.346	52.95531
709.542	77.68063
709.737	71.60318
709.932	97.45006
710.127	97.95156
710.322	92.16335
710.518	71.45394
710.713	66.21644
710.908	48.6919
711.103	82.72605
711.298	104.22639
711.493	59.56633
711.688	67.79051
711.883	81.55972
712.078	102.68153
712.273	112.74862
712.468	58.43972
712.663	76.60904
712.858	75.41532
713.053	83.9737
713.248	95.47105
713.443	81.77672
713.638	57.31307
713.833	53.18611
714.028	74.05875
714.223	114.13035
714.418	128.67497
714.613	71.69815
714.807	118.27514
715.002	66.7728
715.197	66.62354
715.392	49.09926
715.587	69.41876
715.781	81.19354
715.976	59.8378
716.171	114.06262
716.365	76.24279
716.56	99.06297
716.755	48.27095
716.949	83.71604
717.144	78.06043
717.339	72.2137
717.533	79.8237
717.728	105.87955
717.922	57.73387
718.117	52.80597
718.312	90.30598
718.506	69.79868
718.701	116.66335
718.895	133.95463
719.089	97.72114
719.284	93.69524
719.478	72.83778
719.673	49.79176
719.867	92.67851
720.062	82.45482
720.256	56.17279
720.45	85.4247
720.645	41.79297
720.839	68.07546
721.033	74.77774
721.228	57.81532
721.422	84.12287
721.616	75.42888
721.81	67.83122
722.005	79.09128
722.199	89.53317
722.393	62.63373
722.587	64.84584
722.781	101.58382
722.975	95.01016
723.169	88.81457
723.364	70.46351
723.558	60.96435
723.752	67.47842
723.946	114.02198
724.14	63.29874
724.334	85.73658
724.528	65.42937
724.722	77.93835
724.916	105.24269
725.11	76.37844
725.304	78.45378
725.498	90.40088
725.692	77.81628
725.885	95.63371
726.079	109.32108
726.273	75.74088
726.467	59.36273
726.661	71.3454
726.855	88.50272
727.048	108.99591
727.242	57.67957
727.436	82.15646
727.63	68.9303
727.823	84.31272
728.017	60.06854
728.211	61.03221
728.405	84.88228
728.598	72.14587
728.792	68.14331
728.986	95.4846
729.179	70.09717
729.373	68.22472
729.566	80.36622
729.76	81.89878
729.953	70.58562
730.147	102.0988
730.34	82.4955
730.534	138.36711
730.727	101.20435
730.921	90.92964
731.114	98.73769
731.308	70.28713
731.501	66.50141
731.695	64.96797
731.888	72.60714
732.081	67.51913
732.275	77.63994
732.468	98.0871
732.661	74.65564
732.855	66.86779
733.048	68.08903
733.241	47.52409
733.434	88.06883
733.628	84.85515
733.821	107.57327
734.014	95.86415
734.207	94.3866
734.4	68.17045
734.594	65.49722
734.787	84.00082
734.98	77.00241
735.173	88.15019
735.366	37.73155
735.559	99.72709
735.752	52.09997
735.945	51.842
736.138	55.399
736.331	83.16002
736.524	108.19653
736.717	59.71564
736.91	66.74566
737.103	88.2451
737.296	73.6382
737.489	83.71604
737.682	31.90321
737.875	60.13641
738.067	81.77672
738.26	80.67816
738.453	93.39701
738.646	75.83584
738.839	80.27128
739.031	85.66878
739.224	74.81843
739.417	87.82477
739.61	94.25104
739.802	64.66942
739.995	41.72506
740.188	89.70942
740.38	70.0429
740.573	70.51778
740.765	55.43972
740.958	23.30103
741.151	81.87165
741.343	43.19191
741.536	50.33489
741.728	41.22251
741.921	70.17858
742.113	61.75155
742.306	46.60068
742.498	62.15871
742.691	74.92696
742.883	45.36488
743.076	47.11671
743.268	58.24969
743.46	76.01218
743.653	49.0721
743.845	72.63427
744.037	74.77774
744.23	46.76364
744.422	81.41054
744.614	47.37472
744.807	47.70063
744.999	61.45296
745.191	72.39007
745.383	66.20287
745.575	62.22657
745.768	72.40364
745.96	70.93838
746.152	75.23897
746.344	50.82369
746.536	77.96548
746.728	77.91122
746.92	87.60782
747.112	53.24042
747.304	63.71945
747.496	89.00439
747.688	46.09822
747.88	30.42215
748.072	97.55849
748.264	54.92385
748.456	52.39866
748.648	65.57864
748.84	50.0769
749.032	60.04139
749.224	80.4069
749.416	88.4756
749.608	82.17002
749.799	61.11365
749.991	76.02575
750.183	78.12825
750.375	49.3301
750.567	67.13918
750.758	23.74955
750.95	63.28517
751.142	47.25251
751.333	51.27175
751.525	67.51913
751.717	67.13918
751.908	101.55671
752.1	57.05515
752.292	51.95062
752.483	65.6465
752.675	51.21744
752.866	68.45539
753.058	92.93609
753.249	94.07481
753.441	74.39789
753.632	46.3834
753.824	51.69265
754.015	53.37618
754.207	93.7088
754.398	74.60138
754.589	55.60263
754.781	59.29486
754.972	49.80534
755.164	63.31231
755.355	65.99932
755.546	72.32224
755.738	58.38543
755.929	70.65346
756.12	98.85967
756.311	111.77324
756.503	63.00016
756.694	83.22783
756.885	72.0509
757.076	130.52974
757.267	119.20966
757.458	103.53528
757.65	80.08139
757.841	84.5975
758.032	111.90871
758.223	86.88917
758.414	103.23715
758.605	97.96512
758.796	64.62871
758.987	109.68688
759.178	49.50662
759.369	50.74222
759.56	68.12974
759.751	59.06411
759.942	76.75825
760.133	60.81505
760.324	59.97353
760.514	71.46751
760.705	100.22855
760.896	61.90084
761.087	60.34
761.278	55.16822
761.468	36.83496
761.659	86.22474
761.85	63.84159
762.041	45.59575
762.231	76.29705
762.422	54.16361
762.613	99.27983
762.803	76.31061
762.994	109.80882
763.185	51.74696
763.375	76.50052
763.566	57.48953
763.757	55.90128
763.947	65.09011
764.138	73.57036
764.328	90.5229
764.519	86.86205
764.709	83.83809
764.9	64.71013
765.09	68.88959
765.281	58.9148
765.471	45.96242
765.661	39.59254
765.852	54.58446
766.042	59.94638
766.232	30.80261
766.423	43.00177
766.613	56.24066
766.803	50.57929
766.994	71.10119
767.184	45.45994
767.374	105.14784
767.564	92.08201
767.755	65.42937
767.945	44.10186
768.135	57.89676
768.325	84.51614
768.515	81.87165
768.706	62.05014
768.896	84.09575
769.086	70.28713
769.276	79.62025
769.466	43.30056
769.656	71.03335
769.846	60.27214
770.036	79.97289
770.226	73.46183
770.416	52.24931
770.606	74.39789
770.796	108.23718
770.986	70.12431
771.176	42.98819
771.366	61.3851
771.555	75.33392
771.745	39.64688
771.935	73.04127
772.125	43.72159
772.315	63.10874
772.504	88.88236
772.694	43.09684
772.884	75.30679
773.074	29.53891
773.263	77.20588
773.453	68.75391
773.643	82.40057
773.832	81.30204
774.022	75.41532
774.212	61.05936
774.401	28.50616
774.591	33.00376
774.781	38.51943
774.97	65.21224
775.16	31.2646
775.349	33.91406
775.539	42.21402
775.728	31.1559
775.918	52.71093
776.107	97.46361
776.297	146.01284
776.486	275.83383
776.675	313.48044
776.865	252.99587
777.054	100.6758
777.243	93.13943
777.433	83.68892
777.622	82.90235
777.811	62.72873
778.001	86.25186
778.19	51.20386
778.379	39.22579
778.568	74.2758
778.758	53.43049
778.947	62.06371
779.136	65.03583
779.325	74.58782
779.514	25.95129
779.703	81.93946
779.892	39.1307
780.082	51.82842
780.271	24.29321
780.46	56.37641
780.649	70.69416
780.838	49.9547
781.027	38.50585
781.216	31.31895
781.405	34.76999
781.594	75.70019
781.783	93.80369
781.971	100.03881
782.16	66.13502
782.349	91.81086
782.538	36.73987
782.727	80.00002
782.916	39.07637
783.105	86.92985
783.293	43.91173
783.482	94.54927
783.671	88.05527
783.86	49.19431
784.048	32.18854
784.237	9.29785
784.426	40.16304
784.614	38.60093
784.803	65.95861
784.992	4.63301
785.18	49.47946
785.369	63.46159
785.557	54.55731
785.746	56.55289
785.935	66.81351
786.123	44.14261
786.312	26.53567
786.5	48.40674
786.689	57.67957
786.877	44.06112
787.065	75.1847
787.254	7.16273
787.442	37.47344
787.631	49.65598
787.819	50.67433
788.007	66.86779
788.196	70.91124
788.384	80.42047
788.572	88.67898
788.761	35.20473
788.949	27.0385
789.137	54.06857
789.325	47.9179
789.513	37.85381
789.702	53.28115
789.89	52.05924
790.078	48.28453
790.266	19.19601
790.454	38.60093
790.642	31.98474
790.83	80.00002
791.018	45.74513
791.207	46.54636
791.395	69.22881
791.583	32.09343
791.771	68.63179
791.959	52.65662
792.146	44.292
792.334	28.60128
792.522	29.97374
792.71	52.83312
792.898	49.0721
793.086	86.07558
793.274	42.86595
793.462	82.2107
793.65	92.6514
793.837	42.59431
794.025	78.6708
794.213	29.02254
794.401	68.67249
794.588	43.50429
794.776	20.48739
794.964	22.29522
795.151	56.26781
795.339	54.81525
795.527	28.85947
795.714	8.06032
795.902	46.08464
796.089	39.2122
796.277	17.19764
796.465	76.58191
796.652	44.98462
796.84	41.35833
797.027	59.13198
797.215	32.78637
797.402	63.61088
797.59	67.64125
797.777	25.09508
797.964	25.89693
798.152	41.24967
798.339	88.35357
798.526	17.41516
798.714	30.02809
798.901	39.47029
799.088	69.45947
799.276	42.68939
799.463	45.73155
799.65	21.83308
799.837	55.91486
800.025	9.69222
800.212	62.17228
800.399	41.68431
800.586	43.6401
800.773	41.60282
800.96	32.29724
801.148	49.14
801.335	66.08074
801.522	56.06419
801.709	26.39977
801.896	45.74513
802.083	35.0417
802.27	13.75792
802.457	44.52288
802.644	31.42765
802.831	40.52978
803.018	37.73155
803.204	46.60068
803.391	45.01179
803.578	26.83465
803.765	27.92182
803.952	65.2801
804.139	33.41136
804.326	57.39451
804.512	36.14213
804.699	74.14014
804.886	39.63329
805.073	35.92476
805.259	35.10963
805.446	110.48622
805.633	51.67907
805.819	80.17634
806.006	58.73835
806.192	59.40345
806.379	25.6523
806.566	25.74743
806.752	55.91486
806.939	37.43269
807.125	13.54037
807.312	48.78695
807.498	53.56625
807.685	77.38222
807.871	38.0304
808.058	58.56189
808.244	52.23574
808.43	55.54833
808.617	46.26118
808.803	59.81065
808.99	35.21832
809.176	45.26982
809.362	35.50362
809.549	39.59254
809.735	35.88401
809.921	15.47104
810.107	57.70672
810.293	47.72779
810.48	60.77433
810.666	53.05035
810.852	49.05852
811.038	37.05232
811.224	34.91943
811.41	48.27095
811.597	69.39163
811.783	30.69391
811.969	14.54651
812.155	11.78633
812.341	30.51727
812.527	41.19534
812.713	39.00845
812.899	40.78786
813.085	43.93889
813.271	63.17659
813.456	60.01425
813.642	36.76704
813.828	42.6079
814.014	65.60578
814.2	33.24833
814.386	36.23722
814.572	12.69736
814.757	50.34846
814.943	82.97016
815.129	54.40797
815.315	41.82013
815.5	47.7821
815.686	71.99663
815.872	13.06448
816.057	28.18002
816.243	85.64166
816.429	20.13397
816.614	52.72451
816.8	20.39224
816.985	39.33446
817.171	47.99937
817.356	51.02735
817.542	39.17145
817.727	63.05445
817.913	10.38574
818.098	48.16232
818.284	21.72434
818.469	41.90163
818.655	34.57979
818.84	59.81065
819.025	21.45249
819.211	58.84694
819.396	68.79461
819.581	28.56051
819.767	37.21534
819.952	51.81485
820.137	66.9085
820.322	65.06297
820.508	100.17434
820.693	52.98246
820.878	30.72109
821.063	43.70801
821.248	50.83727
821.433	19.03288
821.618	42.377
821.804	38.66885
821.989	41.304
822.174	40.08154
822.359	67.87193
822.544	12.83333
822.729	55.31755
822.914	9.92339
823.099	25.19022
823.284	30.99284
823.469	19.53585
823.653	54.40797
823.838	38.53301
824.023	33.62875
824.208	27.51414
824.393	53.33545
824.578	43.124
824.762	13.60835
824.947	26.87542
825.132	49.42515
825.317	32.28365
825.501	48.89558
825.686	29.94656
825.871	41.80655
826.056	48.05369
826.24	43.43638
826.425	67.54626
826.609	27.55491
826.794	17.5511
826.979	53.28115
827.163	34.28089
827.348	24.71453
827.532	21.71075
827.717	37.70438
827.901	40.21737
828.086	48.78695
828.27	22.96124
828.455	55.4533
828.639	60.97792
828.823	38.6281
829.008	23.54568
829.192	41.75222
829.376	48.89558
829.561	22.03697
829.745	21.19423
829.929	19.57663
830.114	36.97081
830.298	87.91968
830.482	38.24775
830.666	61.00507
830.85	38.17983
831.035	51.13598
831.219	17.12967
831.403	14.2066
831.587	13.59476
831.771	76.71756
831.955	33.11246
832.139	35.74815
832.323	27.33747
832.507	12.09908
832.691	20.82722
832.875	6.41472
833.059	14.01625
833.243	21.60201
833.427	29.02254
833.611	32.70485
833.795	14.70966
833.979	47.06239
834.163	16.78979
834.346	62.59301
834.53	38.08474
834.714	57.42166
834.898	41.65715
835.082	33.23474
835.265	53.13181
835.449	23.08356
835.633	3.46327
835.816	33.46571
836	2.82398
836.184	60.61146
836.367	57.16375
836.551	70.74843
836.735	52.79239
836.918	2.3887
837.102	28.16643
837.285	32.65051
837.469	30.54444
837.652	64.18087
837.836	13.67634
838.019	11.58237
838.203	40.01363
838.386	18.5435
838.569	5.7891
838.753	96.94854
838.936	19.46788
839.12	33.58799
839.303	45.89452
839.486	59.64777
839.669	8.14192
839.853	38.89978
840.036	36.06062
840.219	29.25355
840.402	8.93068
840.586	35.39493
840.769	37.84022
840.952	12.57499
841.135	57.58455
841.318	20.78644
841.501	17.78221
841.684	12.37103
841.868	51.89631
842.051	45.73155
842.234	46.20686
842.417	32.01191
842.6	38.45151
842.783	48.80053
842.966	28.84588
843.149	94.23749
843.331	46.20686
843.514	134.34718
843.697	135.09166
843.88	142.71123
844.063	92.92253
844.246	74.34363
844.429	43.44996
844.611	53.09108
844.794	42.64864
844.977	44.46855
845.16	45.17475
845.342	40.81502
845.525	40.74711
845.708	14.85922
845.89	35.01453
846.073	14.66888
846.256	43.20549
846.438	35.16398
846.621	70.59919
846.803	25.9377
846.986	5.95231
847.168	31.57711
847.351	51.76054
847.533	46.61426
847.716	46.1118
847.898	60.95078
848.081	-2.3998
848.263	23.17871
848.446	15.38946
848.628	58.95553
848.81	6.59153
848.993	21.96901
849.175	16.40913
849.357	25.40767
849.539	27.20157
849.722	22.30882
849.904	12.08548
850.086	47.4562
850.268	58.399
850.451	78.92851
850.633	37.97607
850.815	6.93153
850.997	76.47339
851.179	28.61487
851.361	27.16081
851.543	41.96954
851.725	44.9303
851.907	20.93596
852.089	41.88805
852.271	40.21737
852.453	67.2206
852.635	59.70207
852.817	22.6894
852.999	42.17327
853.181	42.34984
853.363	31.00643
853.545	31.84886
853.727	38.13908
853.908	35.58513
854.09	42.96102
854.272	60.31285
854.454	36.37308
854.636	37.92173
854.817	29.62044
854.999	35.55796
855.181	54.36725
855.362	32.32442
855.544	15.09035
855.726	37.88098
855.907	35.29983
856.089	17.14326
856.27	43.58578
856.452	18.24442
856.634	60.25856
856.815	34.98736
856.997	53.71559
857.178	22.18649
857.36	5.20426
857.541	12.22145
857.722	28.96818
857.904	26.48131
858.085	34.59337
858.267	56.30854
858.448	24.06216
858.629	34.59337
858.811	15.43025
858.992	47.9179
859.173	34.72923
859.354	32.37876
859.536	65.85005
859.717	12.65657
859.898	28.68282
860.079	41.60282
860.26	38.66885
860.441	50.11764
860.623	39.85063
860.804	23.36899
860.985	43.76233
861.166	29.36226
861.347	8.4547
861.528	-7.06671
861.709	48.02653
861.89	23.05638
862.071	62.14514
862.252	30.97926
862.433	23.38258
862.614	92.54294
862.794	40.92369
862.975	46.22044
863.156	85.41113
863.337	26.59003
863.518	62.5523
863.699	31.30536
863.879	52.48012
864.06	22.58066
864.241	37.63646
864.422	34.00917
864.602	22.55348
864.783	49.7646
864.964	26.6308
865.144	25.05431
865.325	25.16303
865.506	37.48703
865.686	36.40025
865.867	47.99937
866.047	23.79033
866.228	52.58874
866.408	14.80484
866.589	21.58842
866.769	53.64771
866.95	35.69381
867.13	32.43311
867.31	29.11766
867.491	38.01682
867.671	3.54488
867.852	20.51458
868.032	58.79264
868.212	35.58513
868.393	51.47541
868.573	13.8123
868.753	6.38752
868.933	35.0417
869.113	18.23083
869.294	30.31344
869.474	39.42954
869.654	33.28909
869.834	22.37678
870.014	48.78695
870.194	0.37546
870.374	42.01029
870.555	22.86609
870.735	27.2967
870.915	38.23417
871.095	41.19534
871.275	41.37191
871.455	52.04566
871.634	19.01929
871.814	53.33545
871.994	18.51631
872.174	42.32267
872.354	61.15436
872.534	36.18288
872.714	25.19022
872.894	29.10407
873.073	31.56353
873.253	52.71093
873.433	12.91491
873.613	23.12434
873.792	25.95129
873.972	37.31043
874.152	16.70822
874.331	47.41546
874.511	67.19346
874.691	21.2486
874.87	10.35854
875.05	17.00731
875.229	20.59614
875.409	26.56285
875.588	9.40664
875.768	49.9547
875.947	63.86873
876.127	64.31658
876.306	39.71479
876.486	37.54137
876.665	37.09307
876.844	32.5554
877.024	58.58904
877.203	49.01779
877.382	2.13025
877.562	29.62044
877.741	18.57069
877.92	44.98462
878.1	50.06332
878.279	18.55709
878.458	12.16706
878.637	19.71257
878.816	45.976
878.996	24.70094
879.175	47.07597
879.354	17.06169
879.533	40.08154
879.712	33.3706
879.891	29.21278
880.07	60.35357
880.249	46.12538
880.428	34.81075
880.607	50.23984
880.786	4.93224
880.965	48.71906
881.144	52.26289
881.323	4.91864
881.502	22.07775
881.68	22.52629
881.859	30.65315
882.038	39.52463
882.217	39.08995
882.396	2.45671
882.574	23.80392
882.753	23.89906
882.932	21.72434
883.111	57.1366
883.289	45.22908
883.468	22.10493
883.647	43.92531
883.825	42.89311
884.004	46.53278
884.182	21.77871
884.361	31.08796
884.539	16.36834
884.718	48.4339
884.896	-1.06655
885.075	27.59567
885.253	54.16361
885.432	38.35642
885.61	6.57793
885.789	23.09715
885.967	23.54568
886.145	48.58327
886.324	29.41661
886.502	34.8515
886.68	46.35624
886.859	29.83785
887.037	49.27578
887.215	27.2967
887.393	71.37254
887.572	6.67313
887.75	33.7782
887.928	48.6919
888.106	45.2155
888.284	68.04832
888.462	40.39395
888.64	15.51182
888.819	31.98474
888.997	39.40237
889.175	10.80729
889.353	7.74753
889.531	29.28072
889.709	25.84256
889.887	14.69607
890.065	58.42615
890.242	49.30294
890.42	47.40188
890.598	15.2671
890.776	52.23574
890.954	22.29522
891.132	19.39992
891.309	1.35489
891.487	39.80988
891.665	18.78819
891.843	41.83372
892.02	4.32018
892.198	39.28012
892.376	29.91938
892.553	48.51537
892.731	57.25877
892.909	33.982
893.086	56.34926
893.264	34.19937
893.441	33.66951
893.619	25.80179
893.797	34.44392
893.974	37.90814
894.151	25.88334
894.329	28.66923
894.506	11.35121
894.684	39.10354
894.861	42.66222
895.039	21.16704
895.216	16.31396
895.393	37.01157
895.571	4.29298
895.748	25.55716
895.925	67.19346
896.102	51.20386
896.28	10.20896
896.457	13.68993
896.634	9.29785
896.811	13.59476
896.988	15.82452
897.166	27.32388
897.343	14.19301
897.52	55.87413
897.697	11.20163
897.874	59.11841
898.051	42.377
898.228	29.79709
898.405	17.67346
898.582	15.2535
898.759	9.44744
898.936	39.14429
899.113	35.16398
899.29	62.62016
899.467	50.40278
899.643	48.21664
899.82	35.76174
899.997	64.11301
900.174	1.61335
900.351	39.15787
900.527	19.2232
900.704	43.04251
900.881	56.66148
901.058	3.39526
901.234	36.86213
901.411	57.85604
901.588	30.28627
901.764	47.53767
901.941	47.40188
902.117	34.02275
902.294	15.47104
902.471	66.74566
902.647	19.48148
902.824	27.25593
903	40.66561
903.176	20.28349
903.353	62.13157
903.529	20.43302
903.706	48.67832
903.882	20.14756
904.058	-1.33864
904.235	6.21072
904.411	3.72171
904.587	36.12854
904.764	23.69519
904.94	21.20782
905.116	26.44054
905.292	51.01378
905.469	38.50585
905.645	40.31246
905.821	45.63649
905.997	22.1593
906.173	6.90433
906.349	26.50849
906.525	35.0417
906.702	33.00376
906.878	11.84072
907.054	26.94337
907.23	34.90585
907.406	29.04972
907.582	60.77433
907.757	28.58769
907.933	20.41943
908.109	52.45297
908.285	28.76435
908.461	44.49571
908.637	7.59793
908.813	34.67489
908.988	30.99284
909.164	42.98819
909.34	28.08489
909.516	12.61578
909.691	13.44519
909.867	55.26324
910.043	31.49559
910.219	42.79804
910.394	47.7821
910.57	42.73013
910.745	44.80807
910.921	51.20386
911.097	16.83058
911.272	6.27872
911.448	58.99625
911.623	12.28944
911.799	11.01126
911.974	4.11616
912.149	9.36584
912.325	28.3295
912.5	26.75311
912.676	28.8187
912.851	14.09783
913.026	42.67581
913.202	0.11699
913.377	14.12502
913.552	-1.20259
913.727	77.23301
913.903	24.79608
914.078	28.12566
914.253	36.72628
914.428	31.02002
914.603	-18.9486
914.779	19.57663
914.954	26.01924
915.129	46.41056
915.304	32.14778
915.479	37.41911
915.654	26.54926
915.829	31.07437
916.004	8.33231
916.179	46.03032
916.354	6.40112
916.529	51.46184
916.704	27.02491
916.879	45.51427
917.053	48.80053
917.228	15.47104
917.403	38.11191
917.578	59.93281
917.753	28.26155
917.927	5.44908
918.102	15.2671
918.277	28.27514
918.452	24.38835
918.626	29.7835
918.801	50.78296
918.976	30.17756
919.15	13.92108
919.325	36.37308
919.499	34.30806
919.674	39.19862
919.849	20.65051
920.023	57.10945
920.198	42.14611
920.372	32.37876
920.547	29.81068
920.721	5.43548
920.895	36.35949
921.07	33.24833
921.244	37.03874
921.419	70.74843
921.593	17.61908
921.767	43.88457
921.942	27.09286
922.116	9.32505
922.29	27.93541
922.464	25.38049
922.639	2.21187
922.813	13.03729
922.987	39.00845
923.161	21.54764
923.335	31.38689
923.509	45.94884
923.683	30.93849
923.858	30.19115
924.032	62.07728
924.206	38.80469
924.38	-9.39366
924.554	22.47192
924.728	17.78221
924.902	70.762
925.075	41.64356
925.249	31.97115
925.423	45.51427
925.597	30.31344
925.771	16.58586
925.945	28.08489
926.119	66.69139
926.292	43.11042
926.466	32.06626
926.64	34.9466
926.814	30.06886
926.987	14.73686
927.161	3.05521
927.335	6.07471
927.508	33.35702
927.682	-0.08706
927.856	8.79469
928.029	61.24937
928.203	44.34632
928.376	56.33569
928.55	8.30511
928.723	12.73815
928.897	31.60429
929.07	40.31246
929.244	43.32773
929.417	-0.9169
929.59	34.14503
929.764	14.27458
929.937	52.18143
930.111	73.32617
930.284	2.48392
930.457	6.34672
930.63	19.23679
930.804	19.94366
930.977	25.5028
931.15	31.88962
931.323	47.61915
931.497	24.60581
931.67	17.42875
931.843	44.6451
932.016	-6.4816
932.189	19.99803
932.362	26.98414
932.535	50.83727
932.708	23.45054
932.881	14.5873
933.054	30.50368
933.227	48.27095
933.4	9.03947
933.573	38.94053
933.746	11.62316
933.919	45.75871
934.092	19.88929
934.264	34.82433
934.437	22.37678
934.61	5.8843
934.783	17.27921
934.956	5.96591
935.128	37.07949
935.301	57.91034
935.474	13.67634
935.646	16.84417
935.819	21.88745
935.992	36.26439
936.164	11.01126
936.337	31.6994
936.51	14.99518
936.682	21.08549
936.855	-6.71292
937.027	62.49801
937.2	30.66673
937.372	21.57482
937.545	27.47337
937.717	29.40302
937.889	13.71713
938.062	47.98579
938.234	31.27819
938.406	13.73072
938.579	30.39497
938.751	29.53891
938.923	32.41953
939.096	51.40753
939.268	29.29431
939.44	30.85697
939.612	33.72385
939.784	42.17327
939.957	30.02809
940.129	36.68553
940.301	21.4389
940.473	46.5871
940.645	51.63834
940.817	54.85598
940.989	13.52677
941.161	22.37678
941.333	28.77794
941.505	22.81172
941.677	12.62937
941.849	21.15345
942.021	30.27268
942.193	15.48463
942.365	0.89239
942.537	43.76233
942.708	30.53085
942.88	32.71844
943.052	-6.61767
943.224	17.89097
943.395	10.84808
943.567	26.15514
943.739	22.83891
943.911	5.7347
944.082	16.16441
944.254	72.15943
944.425	1.20526
944.597	25.24458
944.769	32.79996
944.94	25.28535
945.112	59.52561
945.283	66.20287
945.455	15.67497
945.626	30.42215
945.798	19.84851
945.969	26.9026
946.14	34.70206
946.312	36.03345
946.483	12.90132
946.655	29.36226
946.826	29.74274
946.997	49.99543
947.168	-0.49518
947.34	5.8027
947.511	36.54968
947.682	27.05209
947.853	10.45373
948.025	41.62998
948.196	7.86993
948.367	15.02237
948.538	14.90001
948.709	40.40754
948.88	26.59003
949.051	25.69307
949.222	14.88641
949.393	43.72159
949.564	21.65638
949.735	28.54693
949.906	10.44013
950.077	8.78109
950.248	32.47387
950.419	15.49823
950.59	5.16346
950.761	9.8826
950.931	39.38879
951.102	49.42515
951.273	16.99372
951.444	49.8325
951.614	40.62486
951.785	22.32241
951.956	14.42414
952.126	50.34846
952.297	70.7213
952.468	24.32039
952.638	14.28818
952.809	25.91052
952.98	6.97233
953.15	25.95129
953.321	4.23857
953.491	3.6265
953.662	39.86421
953.832	16.13722
954.002	4.45619
954.173	-11.17644
954.343	25.43485
954.514	-0.08706
954.684	-0.74005
954.854	34.0771
955.025	19.12804
955.195	34.40317
955.365	15.45744
955.535	5.08185
955.706	45.63649
955.876	35.58513
956.046	49.79176
956.216	26.95696
956.386	28.00336
956.557	37.63646
956.727	12.13987
956.897	36.40025
957.067	11.9903
957.237	33.18039
957.407	25.82897
957.577	41.14101
957.747	5.59869
957.917	21.30297
958.087	1.02842
958.257	45.40562
958.427	18.59787
958.596	5.21786
958.766	40.19021
958.936	-6.99867
959.106	51.06809
959.276	25.73384
959.445	3.72171
959.615	29.67479
959.785	26.48131
959.955	68.84889
960.124	30.95208
960.294	19.56304
960.464	19.04648
960.633	8.4819
960.803	13.93467
960.972	25.96488
961.142	-1.65154
961.311	21.49327
961.481	21.6156
961.65	43.70801
961.82	33.58799
961.989	66.98992
962.159	18.72022
962.328	58.38543
962.498	33.61516
962.667	0.40267
962.836	12.0039
963.006	29.26714
963.175	20.17475
963.344	53.95996
963.513	20.33787
963.683	-14.55181
963.852	12.83333
964.021	22.20008
964.19	6.34672
964.359	14.75045
964.528	23.00201
964.698	2.63354
964.867	21.77871
965.036	26.64439
965.205	62.05014
965.374	26.53567
965.543	36.64478
965.712	24.34757
965.881	16.06924
966.05	19.61742
966.219	10.50813
966.387	28.75076
966.556	25.61153
966.725	24.14371
966.894	30.53085
967.063	26.22309
967.232	44.59078
967.4	2.02143
967.569	-1.46108
967.738	54.02785
967.906	17.02091
968.075	44.15619
968.244	0.1442
968.412	13.51318
968.581	37.86739
968.75	24.17089
968.918	16.30036
969.087	13.96187
969.255	22.97483
969.424	52.1407
969.592	29.49814
969.761	23.80392
969.929	21.00393
970.098	31.19666
970.266	-7.58379
970.434	20.29709
970.603	23.43695
970.771	45.77229
970.939	27.52773
971.108	51.4211
971.276	8.4955
971.444	36.41383
971.612	-17.9276
971.781	26.97055
971.949	87.22816
972.117	26.06001
972.285	40.00004
972.453	-0.69924
972.621	6.49633
972.789	24.22525
972.957	49.71029
973.125	0.06258
973.293	15.09035
973.461	41.18176
973.629	62.60659
973.797	21.90105
973.965	32.07985
974.133	22.62144
974.301	22.37678
974.469	17.5647
974.637	21.66997
974.805	58.94195
974.972	37.5957
975.14	45.96242
975.308	26.18232
975.476	17.94535
975.643	38.17983
975.811	11.81353
975.979	62.87802
976.146	35.92476
976.314	39.86421
976.482	29.53891
976.649	10.31775
976.817	53.83778
976.984	36.61761
977.152	18.0541
977.319	52.91458
977.487	46.22044
977.654	34.28089
977.822	16.64025
977.989	10.10017
978.156	25.14944
978.324	18.88335
978.491	23.50491
978.658	-1.2298
978.826	21.69716
978.993	33.79179
979.16	21.53405
979.328	21.75153
979.495	33.94124
979.662	-4.48144
979.829	15.33508
979.996	35.68023
980.163	34.89226
980.33	5.14986
980.498	16.7626
980.665	42.47208
980.832	7.62513
980.999	15.41665
981.166	16.13722
981.333	47.21177
981.5	34.21296
981.667	91.17367
981.833	-3.42019
982	45.13401
982.167	20.09319
982.334	17.48313
982.501	16.83058
982.668	16.91215
982.834	4.93224
983.001	40.70636
983.168	53.24042
983.335	20.62332
983.501	36.38666
983.668	14.28818
983.835	16.12362
984.001	36.26439
984.168	16.08284
984.334	36.73987
984.501	27.75875
984.668	16.53148
984.834	11.31041
985.001	-4.46783
985.167	49.19431
985.334	1.30048
985.5	19.60382
985.666	4.64661
985.833	-0.78086
985.999	21.01752
986.165	24.08934
986.332	50.40278
986.498	33.75103
986.664	26.27746
986.831	27.35106
986.997	17.87737
987.163	11.48718
987.329	12.05829
987.495	-3.08006
987.662	26.37259
987.828	-6.16864
987.994	28.87306
988.16	49.4523
988.326	14.04345
988.492	30.44933
988.658	39.95929
988.824	28.13925
988.99	10.7121
989.156	12.5206
989.322	70.8027
989.488	31.64505
989.654	6.06111
989.82	22.93405
989.985	50.98662
990.151	41.29042
990.317	65.6465
990.483	11.62316
990.648	37.74513
990.814	14.65528
990.98	34.00917
991.146	31.41406
991.311	50.267
991.477	34.6613
991.643	-4.00523
991.808	16.43632
991.974	-8.27779
992.139	28.53334
992.305	18.86976
992.47	15.78374
992.636	23.72237
992.801	37.31043
992.967	25.08149
993.132	25.2174
993.298	78.30458
993.463	10.65771
993.628	25.54357
993.794	23.1923
993.959	50.49782
994.124	7.13553
994.29	33.43854
994.455	50.86442
994.62	22.98842
994.785	58.95553
994.95	15.00878
995.116	41.15459
995.281	20.92237
995.446	24.36117
995.611	-2.59027
995.776	14.2202
995.941	43.02893
996.106	19.39992
996.271	25.9377
996.436	37.10666
996.601	39.48388
996.766	21.86027
996.931	25.77461
997.096	34.21296
997.261	10.45373
997.425	44.292
997.59	17.70065
997.755	14.84563
997.92	12.01749
998.085	19.88929
998.249	9.42024
998.414	-4.22292
998.579	-2.52225
998.744	14.5873
998.908	39.91854
999.073	47.34756
999.237	43.21908
999.402	12.5206
999.567	16.04205
999.731	18.27161
999.896	-3.96441
1000.06	52.00493
1000.225	25.09508
1000.389	45.56859
1000.553	33.05811
1000.718	48.46106
1000.882	-6.61767
1001.047	25.0679
1001.211	16.2052
1001.375	56.51216
1001.54	8.03312
1001.704	17.71424
1001.868	50.98662
1002.032	63.78731
1002.197	25.61153
1002.361	12.07188
1002.525	25.16303
1002.689	37.5142
1002.853	3.72171
1003.017	22.28163
1003.181	8.97147
1003.345	29.15843
1003.509	44.52288
1003.673	29.0633
1003.837	38.8862
1004.001	15.21272
1004.165	12.75175
1004.329	36.52251
1004.493	19.04648
1004.657	31.02002
1004.821	5.32667
1004.985	40.06796
1005.149	13.60835
1005.312	22.89328
1005.476	11.59597
1005.64	73.12267
1005.804	23.13793
1005.967	42.9067
1006.131	26.98414
1006.295	32.12061
1006.458	40.48904
1006.622	21.76512
1006.785	25.23099
1006.949	58.19539
1007.113	36.15571
1007.276	16.65384
1007.44	33.04452
1007.603	17.44235
1007.767	22.26804
1007.93	12.86053
1008.093	26.64439
1008.257	30.44933
1008.42	-3.02564
1008.584	34.11786
1008.747	20.48739
1008.91	41.8473
1009.073	-9.08067
1009.237	25.51639
1009.4	34.32165
1009.563	-10.68651
1009.726	29.71556
1009.889	71.04692
1010.053	26.78029
1010.216	22.40396
1010.379	47.00807
1010.542	68.34684
1010.705	37.39194
1010.868	41.67073
1011.031	29.19919
1011.194	20.37865
1011.357	40.05438
1011.52	14.42414
1011.683	-0.53599
1011.846	38.35642
1012.009	33.58799
1012.171	28.30232
1012.334	23.36899
1012.497	64.91369
1012.66	11.09285
1012.823	29.86503
1012.985	54.92385
1013.148	35.47645
1013.311	4.83703
1013.473	31.35971
1013.636	4.19777
1013.799	49.3301
1013.961	31.34612
1014.124	21.68357
1014.286	39.63329
1014.449	13.88029
1014.612	42.36342
1014.774	19.52226
1014.936	11.14724
1015.099	-2.14131
1015.261	-11.19005
1015.424	32.24289
1015.586	31.97115
1015.748	16.25958
1015.911	-3.76033
1016.073	87.49935
1016.235	41.95596
1016.398	26.29105
1016.56	49.42515
1016.722	8.37311
1016.884	-0.05986
1017.047	45.12043
1017.209	23.72237
1017.371	3.59929
1017.533	1.35489
1017.695	66.33857
1017.857	35.9791
1018.019	55.5076
1018.181	32.99018
1018.343	26.48131
1018.505	26.69875
1018.667	-18.90776
1018.829	-0.60401
1018.991	40.82861
1019.153	33.2755
1019.315	-0.5632
1019.477	0.79716
1019.638	12.16706
1019.8	0.29384
1019.962	36.91647
1020.124	8.97147
1020.285	28.61487
1020.447	23.85829
1020.609	29.89221
1020.77	6.23792
1020.932	76.45983
1021.094	6.91793
1021.255	5.7891
1021.417	56.52574
1021.578	0.78356
1021.74	21.4389
1021.901	18.14926
1022.063	19.73976
1022.224	36.41383
1022.386	28.08489
1022.547	41.48057
1022.709	34.60696
1022.87	54.58446
1023.031	23.85829
1023.193	11.89511
1023.354	30.09603
1023.515	40.32604
1023.676	38.22058
1023.838	27.18798
1023.999	33.38419
1024.16	34.32165
1024.321	42.14611
1024.482	32.31083
1024.644	61.22223
1024.805	39.17145
1024.966	15.93329
1025.127	3.87133
1025.288	25.82897
1025.449	64.42514
1025.61	24.38835
1025.771	41.68431
1025.932	29.75632
1026.093	46.5871
1026.253	12.4934
1026.414	-9.89718
1026.575	15.75655
1026.736	4.86423
1026.897	13.58116
1027.058	41.98312
1027.218	20.17475
1027.379	9.02587
1027.54	30.88414
1027.7	34.63413
1027.861	35.38135
1028.022	37.7723
1028.182	16.27317
1028.343	25.02713
1028.504	7.74753
1028.664	21.20782
1028.825	38.92695
1028.985	25.24458
1029.146	5.20426
1029.306	11.02486
1029.466	52.96889
1029.627	54.01427
1029.787	26.91619
1029.948	23.24666
1030.108	14.31537
1030.268	45.79945
1030.429	6.40112
1030.589	37.02515
1030.749	7.46193
1030.909	37.47344
1031.07	45.55501
1031.23	32.39235
1031.39	-1.93724
1031.55	29.97374
1031.71	-4.45423
1031.87	30.43574
1032.03	32.05267
1032.19	24.19807
1032.35	5.47628
1032.51	50.34846
1032.67	4.85063
1032.83	14.32897
1032.99	19.0057
1033.15	43.13759
1033.31	33.08528
1033.47	10.18176
1033.63	36.54968
1033.79	17.44235
1033.949	11.48718
1034.109	42.92028
1034.269	14.26099
1034.429	49.09926
1034.588	34.19937
1034.748	18.72022
1034.908	28.98177
1035.067	22.48551
1035.227	16.91215
1035.387	38.41076
1035.546	44.40065
1035.706	15.66138
1035.865	54.81525
1036.025	23.08356
1036.184	26.65798
1036.344	36.76704
1036.503	39.68763
1036.662	21.34375
1036.822	33.22115
1036.981	22.73017
1037.14	23.50491
1037.3	11.59597
1037.459	21.00393
1037.618	46.1118
1037.778	30.35421
1037.937	26.64439
1038.096	32.90866
1038.255	30.12321
1038.414	21.31656
1038.573	60.38072
1038.733	33.8733
1038.892	40.06796
1039.051	51.52972
1039.21	51.05451
1039.369	1.53173
1039.528	45.96242
1039.687	25.72025
1039.846	37.9489
1040.005	18.57069
1040.164	41.3855
1040.322	17.64627
1040.481	21.57482
1040.64	16.58586
1040.799	19.31835
1040.958	51.58403
1041.116	26.64439
1041.275	10.35854
1041.434	26.11437
1041.593	-2.26375
1041.751	23.73596
1041.91	45.96242
1042.069	0.32105
1042.227	19.07366
1042.386	49.65598
1042.544	19.0057
1042.703	36.10137
1042.861	24.87763
1043.02	7.27153
1043.178	39.25296
1043.337	57.86961
1043.495	29.09048
1043.653	24.44271
1043.812	3.61289
1043.97	15.17193
1044.129	11.48718
1044.287	31.67223
1044.445	28.41103
1044.603	3.76251
1044.762	-10.35989
1044.92	42.17327
1045.078	25.70666
1045.236	16.04205
1045.394	13.68993
1045.552	66.17573
