Data from deut_60ms_66_SR4014911__0__16-23-17-606.txt Node

Date: Sun Jul 13 16:23:17 EDT 2025
User: cryst
Spectrometer: SR401491
Trigger mode: 0
Integration Time (sec): 6.000000E-2
Scans to average: 66
Electric dark correction enabled: true
Nonlinearity correction enabled: true
Boxcar width: 0
XAxis mode: Wavelengths
Number of Pixels in Spectrum: 3648
>>>>>Begin Spectral Data<<<<<
344.912	-97.07136
345.129	-86.18311
345.347	-98.72651
345.565	-87.05995
345.783	44.45094
346.001	27.67112
346.219	11.58946
346.437	35.01667
346.654	64.32941
346.872	21.03202
347.09	-14.41561
347.308	65.29992
347.526	18.77468
347.743	12.90799
347.961	81.34938
348.179	38.42525
348.397	39.13325
348.614	82.0727
348.832	97.53721
349.05	89.07473
349.268	93.19949
349.485	109.56092
349.703	54.52366
349.921	112.68097
350.138	114.09308
350.356	118.65732
350.574	49.91569
350.791	84.73566
351.009	102.67915
351.227	97.06076
351.444	74.98665
351.662	98.3751
351.879	61.82895
352.097	102.00566
352.314	71.31958
352.532	93.67602
352.75	86.83954
352.967	101.48
353.185	108.54273
353.402	71.63204
353.62	71.79649
353.837	117.57379
354.055	91.40834
354.272	134.29804
354.49	137.44809
354.707	129.49025
354.925	86.69161
355.142	97.01147
355.359	132.47676
355.577	141.12269
355.794	125.14118
356.012	148.06045
356.229	130.04819
356.446	93.70888
356.664	106.98251
356.881	145.55125
357.099	90.3566
357.316	100.24794
357.533	115.68573
357.751	94.11967
357.968	183.54218
358.185	130.37639
358.402	109.70872
358.62	131.75478
358.837	125.09194
359.054	84.50553
359.272	83.46996
359.489	105.06087
359.706	98.35867
359.923	129.17845
360.141	109.56092
360.358	111.97488
360.575	126.86448
360.792	105.19227
361.009	106.65404
361.226	117.2947
361.444	169.60071
361.661	113.37061
361.878	116.34246
362.095	101.38144
362.312	125.6828
362.529	121.34954
362.746	116.67082
362.963	85.5575
363.181	85.85336
363.398	124.20563
363.615	152.47149
363.832	91.09611
364.049	77.56809
364.266	165.07765
364.483	123.5655
364.7	107.91865
364.917	59.08147
365.134	118.41107
365.351	111.12099
365.568	137.05435
365.785	85.93555
366.002	79.14643
366.219	95.13841
366.436	140.00724
366.652	152.50429
366.869	109.6923
367.086	131.04918
367.303	80.41233
367.52	88.3516
367.737	144.66559
367.954	130.5569
368.171	98.12867
368.387	174.69646
368.604	106.3584
368.821	109.06825
369.038	102.16993
369.255	114.50357
369.471	101.44714
369.688	129.91691
369.905	142.33651
370.122	112.79591
370.339	121.67784
370.555	105.58646
370.772	86.37933
370.989	167.61786
371.205	107.31099
371.422	100.83933
371.639	96.23926
371.855	156.81626
372.072	100.59292
372.289	87.13538
372.505	155.71784
372.722	84.47266
372.939	132.5588
373.155	141.59838
373.372	107.03179
373.589	122.99101
373.805	95.43416
374.022	87.7928
374.238	90.94821
374.455	119.49456
374.671	138.10431
374.888	127.04501
375.104	69.4283
375.321	87.56271
375.537	117.1141
375.754	109.16679
375.97	116.30962
376.187	158.76709
376.403	106.9004
376.62	110.52982
376.836	107.32741
377.053	106.0135
377.269	104.37101
377.486	87.71063
377.702	79.52457
377.918	77.68318
378.135	111.41657
378.351	121.46444
378.568	119.60948
378.784	118.70657
379	120.8735
379.217	107.6723
379.433	105.38936
379.649	135.24966
379.865	104.02608
380.082	158.32448
380.298	87.06964
380.514	159.32445
380.731	104.46956
380.947	91.45764
381.163	121.7435
381.379	110.03716
381.596	110.10285
381.812	156.27525
382.028	124.43541
382.244	107.1139
382.46	96.89646
382.676	151.48768
382.893	127.11065
383.109	113.40345
383.325	118.00064
383.541	141.43435
383.757	65.18477
383.973	111.46584
384.189	160.22602
384.405	112.3854
384.622	118.36182
384.838	124.27128
385.054	128.89947
385.27	145.32163
385.486	110.66119
385.702	91.26044
385.918	131.77118
386.134	101.46357
386.35	144.28836
386.566	143.20584
386.782	143.35346
386.998	140.17128
387.214	122.3016
387.43	108.72338
387.646	155.1932
387.861	151.04495
388.077	112.61529
388.293	127.96405
388.509	126.96295
388.725	137.33325
388.941	137.72698
389.157	88.59812
389.373	126.04387
389.588	133.70737
389.804	135.15122
390.02	154.75053
390.236	98.49011
390.452	105.71786
390.668	139.56433
390.883	163.20922
391.099	132.52599
391.315	132.31267
391.531	114.24086
391.746	97.61936
391.962	128.35792
392.178	136.48015
392.393	119.5274
392.609	169.76457
392.825	128.57126
393.041	122.33443
393.256	148.864
393.472	154.521
393.687	133.87145
393.903	151.38929
394.119	131.68914
394.334	128.68613
394.55	155.27518
394.766	128.02969
394.981	168.68304
395.197	148.73281
395.412	166.07738
395.628	142.53334
395.843	171.74726
396.059	234.85799
396.274	170.04314
396.49	204.44958
396.705	146.37127
396.921	108.05004
397.136	142.22169
397.352	128.24304
397.567	132.52599
397.783	136.23405
397.998	132.44394
398.214	124.22204
398.429	121.71067
398.644	187.37446
398.86	125.58432
399.075	146.35487
399.29	136.02077
399.506	121.72708
399.721	137.08717
399.936	138.02228
400.152	117.96781
400.367	139.71196
400.582	150.24146
400.798	150.22506
401.013	108.72338
401.228	147.17487
401.444	145.46924
401.659	128.83383
401.874	172.3699
402.089	156.1441
402.304	155.5375
402.52	137.15279
402.735	112.86159
402.95	104.23961
403.165	150.43824
403.38	175.13881
403.596	129.27691
403.811	155.50471
404.026	190.20738
404.241	128.17739
404.456	132.77211
404.671	173.59874
404.886	153.70122
405.101	117.93497
405.316	141.28672
405.532	156.53756
405.747	150.47103
405.962	148.32283
406.177	145.25603
406.392	128.37433
406.607	156.94742
406.822	153.93076
407.037	166.43792
407.252	220.05861
407.467	194.34982
407.682	201.73266
407.896	216.78699
408.111	215.05288
408.326	223.72238
408.541	299.23209
408.756	299.46046
408.971	314.41473
409.186	333.2557
409.401	271.12898
409.616	184.0499
409.83	133.31358
410.045	132.91979
410.26	110.85825
410.475	113.30493
410.69	140.64699
410.905	136.21765
411.119	89.76497
411.334	122.92535
411.549	124.22204
411.764	168.07672
411.978	170.69858
412.193	139.67916
412.408	117.34395
412.623	95.25342
412.837	166.65097
413.052	154.43902
413.267	149.70032
413.481	140.08926
413.696	116.72008
413.911	118.98566
414.125	121.57935
414.34	112.02415
414.554	120.92274
414.769	167.53592
414.984	146.68287
415.198	93.01874
415.413	113.18999
415.627	134.10115
415.842	129.4082
416.056	163.14366
416.271	119.16624
416.485	132.23063
416.7	143.87832
416.914	127.65223
417.129	117.63946
417.343	123.5655
417.558	131.96809
417.772	155.63587
417.987	132.5588
418.201	123.63115
418.415	105.12657
418.63	145.20683
418.844	118.98566
419.059	142.927
419.273	122.51499
419.487	182.14998
419.702	145.97766
419.916	183.31288
420.13	127.93123
420.345	128.91588
420.559	122.43292
420.773	130.37639
420.988	153.11096
421.202	169.58432
421.416	126.0767
421.63	132.72289
421.845	131.03277
422.059	128.85024
422.273	112.22119
422.487	148.29003
422.701	171.07546
422.916	193.64581
423.13	130.40921
423.344	121.49727
423.558	121.48086
423.772	128.43997
423.986	125.00987
424.201	114.97972
424.415	178.41528
424.629	156.35723
424.843	139.38388
425.057	161.99631
425.271	90.32373
425.485	112.10625
425.699	116.47381
425.913	167.60148
426.127	137.15279
426.341	136.80827
426.555	136.61139
426.769	157.19333
426.983	165.97904
427.197	146.84687
427.411	142.61536
427.625	172.41905
427.839	123.4506
428.053	133.9863
428.267	121.89123
428.481	153.53726
428.695	125.37096
428.908	101.80854
429.122	132.98542
429.336	157.20972
429.55	130.27793
429.764	159.47198
429.978	194.08787
430.191	205.52972
430.405	265.038
430.619	267.58559
430.833	362.56888
431.047	467.38931
431.26	637.53786
431.474	749.12629
431.688	835.19196
431.901	884.8174
432.115	1077.30792
432.329	1218.20383
432.543	1332.52534
432.756	1617.75901
432.97	1653.28941
433.184	1128.48827
433.397	503.34608
433.611	201.25799
433.824	179.90594
434.038	162.06187
434.252	138.64567
434.465	136.21765
434.679	135.00355
434.892	148.12604
435.106	84.57128
435.319	120.26612
435.533	168.37169
435.747	166.76569
435.96	96.65001
436.174	174.10664
436.387	161.57014
436.601	150.38904
436.814	162.66833
437.027	120.29895
437.241	147.97845
437.454	121.7435
437.668	148.99519
437.881	170.25616
438.095	135.21685
438.308	149.02798
438.521	182.51032
438.735	143.43547
438.948	142.73017
439.161	142.17249
439.375	132.01732
439.588	161.4554
439.801	160.22602
440.015	148.40483
440.228	169.2402
440.441	179.57833
440.654	208.24628
440.868	200.83241
441.081	116.99918
441.294	175.00774
441.507	156.88184
441.721	134.28164
441.934	157.63596
442.147	118.83791
442.36	136.80827
442.573	154.42263
442.786	122.20311
443	165.81516
443.213	141.07348
443.426	167.84729
443.639	175.71222
443.852	158.48841
444.065	168.89608
444.278	159.01298
444.491	157.93104
444.704	158.83266
444.917	170.9116
445.13	176.97368
445.343	144.846
445.556	215.03652
445.769	219.86233
445.982	172.64844
446.195	176.62965
446.408	165.52016
446.621	190.27288
446.834	159.4228
447.047	147.17487
447.26	147.97845
447.473	169.87928
447.686	161.84879
447.899	149.99549
448.111	164.61875
448.324	159.8654
448.537	160.60304
448.75	144.43597
448.963	150.56942
449.176	199.76845
449.388	195.51221
449.601	173.5332
449.814	152.73384
450.027	151.43849
450.239	170.50195
450.452	140.94225
450.665	135.97155
450.878	146.22367
451.09	172.77952
451.303	149.68392
451.516	133.90426
451.728	176.56412
451.941	105.38936
452.154	175.43371
452.366	176.46583
452.579	128.88306
452.792	199.53929
453.004	159.16052
453.217	161.53736
453.429	160.66861
453.642	142.9106
453.854	189.43777
454.067	204.13862
454.28	218.75001
454.492	132.72289
454.705	131.72196
454.917	157.16054
455.13	188.52076
455.342	184.44297
455.555	137.07076
455.767	227.71273
455.979	157.89825
456.192	185.90056
456.404	122.3016
456.617	175.95796
456.829	138.72769
457.041	188.14412
457.254	175.49924
457.466	158.39005
457.679	155.16041
457.891	202.12548
458.103	160.94727
458.315	160.09489
458.528	129.60512
458.74	152.24194
458.952	161.70127
459.165	157.79989
459.377	132.34549
459.589	112.00773
459.801	170.50195
460.014	174.46709
460.226	157.73432
460.438	160.75056
460.65	123.35211
460.862	177.21941
461.075	138.72769
461.287	153.88157
461.499	106.98251
461.711	118.78866
461.923	122.56423
462.135	171.2557
462.347	143.07462
462.559	152.88141
462.771	149.43795
462.983	128.39074
463.196	171.56702
463.408	178.7429
463.62	144.64919
463.832	190.86236
464.044	162.0127
464.256	186.53926
464.468	141.04067
464.68	169.22381
464.891	151.66805
465.103	147.48647
465.315	182.00257
465.527	149.71672
465.739	108.3785
465.951	143.46827
466.163	145.35444
466.375	119.16624
466.587	171.0263
466.799	145.09202
467.01	135.62701
467.222	142.97621
467.434	106.53907
467.646	132.93619
467.858	162.61916
468.069	151.56966
468.281	118.96924
468.493	105.68501
468.705	119.56023
468.916	140.31891
469.128	108.87118
469.34	115.32452
469.551	129.32615
469.763	96.25569
469.975	123.23722
470.186	121.49727
470.398	106.09562
470.61	119.80647
470.821	95.45059
471.033	121.8584
471.245	159.48837
471.456	110.00432
471.668	150.52022
471.879	114.74985
472.091	147.61766
472.302	169.91205
472.514	158.65234
472.725	145.17403
472.937	108.36208
473.148	105.60288
473.36	129.55589
473.571	160.50469
473.783	123.77887
473.994	132.69007
474.206	111.44941
474.417	121.2018
474.629	139.41669
474.84	153.32411
475.051	162.53721
475.263	102.44918
475.474	120.59443
475.685	138.94096
475.897	122.3016
476.108	165.76599
476.319	108.592
476.531	116.45739
476.742	155.42273
476.953	167.48676
477.165	210.4226
477.376	125.92898
477.587	139.72837
477.798	157.35726
478.01	124.12356
478.221	143.96033
478.432	141.28672
478.643	126.38853
478.854	125.89616
479.065	216.21442
479.277	174.2541
479.488	175.56477
479.699	167.66703
479.91	160.37355
480.121	179.41452
480.332	173.02528
480.543	176.82624
480.754	128.25945
480.965	142.2381
481.176	158.94741
481.387	195.36487
481.598	165.65127
481.809	200.65236
482.02	289.54106
482.231	585.22152
482.442	1303.36431
482.653	2674.80756
482.864	4356.80932
483.075	6709.17114
483.286	9446.85163
483.497	12756.66222
483.708	15233.61215
483.919	17441.56305
484.13	19394.89861
484.341	22077.77859
484.551	25889.69889
484.762	29314.12309
484.973	30308.18073
485.184	20803.24727
485.395	6810.12797
485.605	1940.46076
485.816	838.9612
486.027	416.54369
486.238	313.24085
486.449	340.50527
486.659	261.42853
486.87	233.05958
487.081	227.27121
487.291	208.91719
487.502	198.63898
487.713	169.60071
487.923	201.20888
488.134	160.40634
488.345	248.17903
488.555	204.33501
488.766	165.48738
488.976	206.77348
489.187	187.32533
489.398	182.42843
489.608	211.07711
489.819	167.04429
490.029	156.88184
490.24	202.25642
490.45	217.08145
490.661	189.50327
490.871	180.00423
491.082	155.42273
491.292	157.61956
491.503	169.87928
491.713	195.28301
491.924	190.97697
492.134	168.69943
492.344	168.40446
492.555	199.68661
492.765	193.95689
492.975	191.76292
493.186	189.66702
493.396	223.77145
493.607	149.96269
493.817	203.28755
494.027	170.87883
494.237	175.77775
494.448	172.59928
494.658	193.62944
494.868	151.24172
495.078	195.65956
495.289	207.77172
495.499	169.2402
495.709	134.15038
495.919	173.27105
496.129	171.82919
496.34	143.04182
496.55	136.44733
496.76	178.61185
496.97	192.4506
497.18	183.34564
497.39	144.846
497.6	184.01715
497.81	196.08521
498.021	209.16265
498.231	195.20116
498.441	180.56115
498.651	164.81542
498.861	135.23325
499.071	170.53472
499.281	205.00602
499.491	170.86244
499.701	170.46918
499.911	174.66369
500.121	173.0089
500.331	181.29825
500.54	230.83594
500.75	181.6586
500.96	175.17158
501.17	159.02938
501.38	179.59471
501.59	184.85242
501.8	169.61709
502.01	128.21022
502.219	178.84119
502.429	191.22258
502.639	215.59276
502.849	214.922
503.059	165.52016
503.268	169.45323
503.478	152.47149
503.688	185.03257
503.898	169.7318
504.107	165.86432
504.317	229.675
504.527	177.98936
504.736	187.24345
504.946	164.29096
505.156	194.4808
505.365	157.66874
505.575	171.91111
505.785	152.88141
505.994	192.59796
506.204	157.16054
506.413	178.56271
506.623	135.24966
506.832	173.92642
507.042	172.33713
507.251	195.41399
507.461	186.30999
507.67	174.549
507.88	163.37312
508.089	162.50443
508.299	177.64534
508.508	172.28797
508.718	120.29895
508.927	145.68245
509.137	189.45415
509.346	188.86464
509.555	146.10887
509.765	152.94699
509.974	292.62492
510.184	184.45935
510.393	151.61886
510.602	163.61897
510.812	189.4869
511.021	172.71398
511.23	224.52377
511.439	143.12383
511.649	154.58658
511.858	165.68405
512.067	171.15738
512.276	164.93015
512.486	319.77814
512.695	183.23099
512.904	119.69156
513.113	164.89737
513.322	179.48005
513.531	164.89737
513.741	201.89633
513.95	142.69737
514.159	188.84827
514.368	149.81511
514.577	150.81538
514.786	145.50204
514.995	154.38984
515.204	169.35491
515.413	131.21328
515.622	143.25505
515.831	159.02938
516.04	155.29157
516.249	133.28077
516.458	147.01087
516.667	184.90155
516.876	196.13432
517.085	144.37037
517.294	183.64045
517.503	160.4883
517.712	166.66736
517.921	168.79775
518.13	174.74561
518.339	174.59816
518.547	239.97466
518.756	133.60892
518.965	161.58653
519.174	143.14023
519.383	167.32288
519.591	136.49655
519.8	129.0964
520.009	160.70139
520.218	147.43727
520.426	150.76619
520.635	192.15588
520.844	172.61567
521.053	181.69136
521.261	192.41785
521.47	174.56539
521.679	161.91436
521.887	170.78051
522.096	156.04573
522.304	139.87601
522.513	130.40921
522.722	132.49317
522.93	182.8379
523.139	166.11015
523.347	144.53438
523.556	155.27518
523.764	160.34077
523.973	157.63596
524.182	141.1719
524.39	178.89033
524.598	139.66275
524.807	131.31173
525.015	152.86501
525.224	172.17328
525.432	151.01215
525.641	129.98255
525.849	139.4823
526.057	158.83266
526.266	184.75415
526.474	114.81553
526.683	142.2545
526.891	193.18738
527.099	138.26836
527.308	159.53755
527.516	126.76601
527.724	175.95796
527.932	125.58432
528.141	178.89033
528.349	202.5674
528.557	163.91399
528.765	127.07783
528.974	129.21127
529.182	131.36096
529.39	150.717
529.598	127.78353
529.806	133.29717
530.015	164.79903
530.223	154.53739
530.431	126.25723
530.639	118.47674
530.847	120.79142
531.055	154.66856
531.263	149.43795
531.471	106.0135
531.679	108.67411
531.887	157.73432
532.095	160.57025
532.303	182.78876
532.511	148.60162
532.719	136.6278
532.927	153.47167
533.135	174.66369
533.343	191.05884
533.551	181.29825
533.759	145.33803
533.967	196.01972
534.175	155.70145
534.383	195.77416
534.591	184.50849
534.798	180.52839
535.006	130.04819
535.214	154.521
535.422	135.61061
535.63	177.79278
535.837	137.02154
536.045	132.11577
536.253	152.84861
536.461	151.32371
536.668	150.56942
536.876	188.226
537.084	188.79914
537.292	178.26784
537.499	189.32315
537.707	168.6175
537.915	182.46118
538.122	206.54437
538.33	193.26924
538.538	175.43371
538.745	169.92844
538.953	218.91359
539.16	175.90881
539.368	148.35563
539.575	147.84725
539.783	170.10868
539.99	188.37338
540.198	164.76626
540.406	160.81613
540.613	169.71541
540.82	146.94527
541.028	179.56195
541.235	164.79903
541.443	200.4232
541.65	219.51882
541.858	194.26796
542.065	169.60071
542.272	160.43912
542.48	223.90229
542.687	139.67916
542.895	190.60037
543.102	150.6678
543.309	180.54477
543.516	177.38323
543.724	170.07591
543.931	165.19238
544.138	176.28562
544.346	166.42153
544.553	171.09184
544.76	162.99614
544.967	164.96293
545.174	173.27105
545.382	164.27457
545.589	186.96505
545.796	182.10084
546.003	140.18768
546.21	176.61327
546.417	220.33668
546.624	180.41373
546.832	174.79476
547.039	163.52063
547.246	207.36261
547.453	168.32253
547.66	137.72698
547.867	176.79347
548.074	167.68341
548.281	147.38807
548.488	170.58388
548.695	145.76445
548.902	170.60027
549.109	143.15663
549.316	151.29091
549.523	134.47853
549.73	154.521
549.936	160.42273
550.143	144.7476
550.35	130.01537
550.557	149.40515
550.764	134.15038
550.971	192.4506
551.178	143.87832
551.384	176.89177
551.591	187.66922
551.798	191.9594
552.005	152.9306
552.211	167.50315
552.418	155.5375
552.625	130.99995
552.832	170.94437
553.038	165.11043
553.245	175.00774
553.452	188.14412
553.658	149.76592
553.865	153.14375
554.072	178.30061
554.278	160.0621
554.485	201.83086
554.691	198.32795
554.898	154.48821
555.105	191.43544
555.311	163.94677
555.518	185.32736
555.724	188.93014
555.931	136.61139
556.137	128.71895
556.344	171.82919
556.55	167.92923
556.757	174.27048
556.963	174.3524
557.17	181.15083
557.376	193.30199
557.582	215.1674
557.789	151.11054
557.995	158.79988
558.202	145.19043
558.408	182.70687
558.614	148.22444
558.821	185.47476
559.027	180.6922
559.233	172.82867
559.439	222.692
559.646	164.81542
559.852	200.70147
560.058	192.66345
560.264	178.89033
560.471	178.02212
560.677	194.41531
560.883	208.40992
561.089	200.86515
561.295	168.63388
561.502	171.40317
561.708	166.24126
561.914	181.56032
562.12	189.2904
562.326	194.31708
562.532	192.66345
562.738	196.18343
562.944	152.37311
563.15	191.81204
563.356	142.2381
563.562	171.64895
563.768	189.01202
563.974	150.58582
564.18	181.80602
564.386	163.47146
564.592	153.45528
564.798	162.17661
565.004	208.75356
565.21	130.50767
565.416	199.1628
565.622	178.661
565.828	186.88317
566.034	215.64184
566.239	178.79205
566.445	224.08219
566.651	205.23514
566.857	219.28982
567.063	199.70298
567.268	236.03507
567.474	240.77559
567.68	219.6824
567.886	247.18221
568.091	273.02296
568.297	259.46845
568.503	268.79399
568.708	299.94981
568.914	314.34952
569.12	323.34777
569.325	271.01468
569.531	276.56568
569.737	225.60315
569.942	250.97321
570.148	312.62128
570.353	351.28674
570.559	333.35346
570.765	304.6309
570.97	319.10981
571.176	364.88013
571.381	284.05784
571.587	246.57756
571.792	259.79514
571.998	267.43862
572.203	273.56175
572.408	356.46436
572.614	393.64186
572.819	355.97595
573.025	320.96807
573.23	330.5672
573.435	295.62688
573.641	318.60447
573.846	283.14387
574.051	332.42473
574.257	355.99223
574.462	345.00075
574.667	311.49623
574.873	305.80514
575.078	377.65389
575.283	350.87966
575.488	374.72536
575.694	389.72291
575.899	323.26628
576.104	356.07363
576.309	363.1223
576.514	378.90656
576.719	462.62004
576.925	525.14633
577.13	448.98945
577.335	424.79644
577.54	378.85776
577.745	335.19452
577.95	371.08056
578.155	328.57918
578.36	295.00694
578.565	314.85493
578.77	406.24083
578.975	442.15565
579.18	366.94709
579.385	394.08088
579.59	477.72021
579.795	381.21655
580	310.11025
580.205	338.30615
580.41	457.13608
580.615	717.61065
580.82	743.91593
581.024	607.74083
581.229	576.60703
581.434	542.2067
581.639	425.70606
581.844	352.99643
582.049	315.2136
582.253	377.70269
582.458	327.71549
582.663	266.2465
582.868	277.25132
583.072	286.71798
583.277	350.11433
583.482	401.46197
583.686	410.93768
583.891	386.09621
584.096	405.23311
584.3	457.02249
584.505	360.98997
584.71	409.96261
584.914	403.80273
585.119	396.61732
585.323	364.19654
585.528	286.31
585.733	318.31105
585.937	336.95402
586.142	280.85881
586.346	397.983
586.551	340.70074
586.755	359.49236
586.959	460.44604
587.164	454.6696
587.368	358.89004
587.573	437.10643
587.777	599.35851
587.982	2151.51577
588.186	4930.49424
588.39	2184.11132
588.595	1342.4048
588.799	2745.59129
589.003	1156.13662
589.208	449.23291
589.412	383.24984
589.616	336.74223
589.82	333.7282
590.025	259.69713
590.229	270.94937
590.433	263.27416
590.637	260.95486
590.842	342.98113
591.046	374.74163
591.25	309.75152
591.454	244.27326
591.658	284.15576
591.862	402.04718
592.067	621.43213
592.271	493.81786
592.475	417.53479
592.679	429.81523
592.883	372.02435
593.087	391.70684
593.291	339.70709
593.495	306.49008
593.699	282.88273
593.903	387.08831
594.107	468.99513
594.311	457.34702
594.515	424.21167
594.719	365.48233
594.923	348.56732
595.127	386.58413
595.33	362.95953
595.534	262.73518
595.738	374.69282
595.942	354.73859
596.146	273.38215
596.35	348.20905
596.553	312.62128
596.757	348.5836
596.961	434.93062
597.165	353.56631
597.369	259.89315
597.572	298.31859
597.776	272.01068
597.98	387.60875
598.183	456.03268
598.387	406.38711
598.591	336.36753
598.794	331.41451
598.998	341.66178
599.202	374.644
599.405	420.60536
599.609	378.92283
599.812	425.44617
600.016	405.2006
600.22	449.73605
600.423	434.10247
600.627	405.59069
600.83	322.69582
601.034	429.03567
601.237	453.95558
601.441	296.29575
601.644	336.9866
601.847	413.83018
602.051	367.07728
602.254	356.96905
602.458	391.20274
602.661	459.94308
602.864	364.50579
603.068	329.52432
603.271	310.56682
603.475	310.06133
603.678	327.6666
603.881	318.83269
604.084	271.2596
604.288	285.24922
604.491	382.20881
604.694	363.83847
604.897	271.35757
605.101	317.08841
605.304	335.6507
605.507	297.38876
605.71	268.745
605.913	347.26451
606.116	348.5836
606.32	354.98281
606.523	304.69614
606.726	301.28734
606.929	327.43845
607.132	340.01659
607.335	349.54439
607.538	294.59907
607.741	280.23855
607.944	237.68617
608.147	232.60179
608.35	282.34412
608.553	285.67354
608.756	293.2286
608.959	297.79658
609.162	373.58641
609.365	341.72694
609.568	324.58644
609.771	251.65945
609.973	312.63758
610.176	324.50495
610.379	259.63179
610.582	274.19848
610.785	322.9566
610.988	294.25646
611.19	257.75327
611.393	255.82561
611.596	239.15736
611.799	240.08908
612.001	298.04128
612.204	251.44705
612.407	251.15294
612.609	268.95728
612.812	301.90715
613.015	307.99039
613.217	296.75254
613.42	244.22423
613.623	264.67871
613.825	312.80063
614.028	308.80574
614.23	277.44721
614.433	258.45569
614.636	255.82561
614.838	324.9287
615.041	340.87992
615.243	225.88117
615.446	202.4692
615.648	199.14643
615.85	221.43258
616.053	191.07522
616.255	247.81952
616.458	231.68618
616.66	199.98125
616.863	196.93649
617.065	235.64271
617.267	243.63586
617.47	215.26556
617.672	211.92794
617.874	186.78491
618.077	215.64184
618.279	207.59171
618.481	264.56439
618.683	178.10403
618.886	179.05414
619.088	279.92841
619.29	281.83814
619.492	203.14025
619.694	205.72611
619.897	221.20359
620.099	178.89033
620.301	142.73017
620.503	141.20471
620.705	188.34063
620.907	177.25217
621.109	162.93058
621.311	214.90564
621.513	212.5006
621.715	239.17371
621.917	236.63994
622.119	247.19855
622.321	224.49106
622.523	241.59284
622.725	182.08446
622.927	188.99565
623.129	184.41022
623.331	199.88304
623.533	167.33927
623.735	203.94222
623.937	223.18266
624.139	164.58597
624.341	205.8243
624.542	146.78127
624.744	145.60045
624.946	191.51731
625.148	171.23931
625.35	191.04247
625.551	174.58177
625.753	137.34966
625.955	168.17504
626.156	191.12434
626.358	199.86667
626.56	174.51624
626.762	217.03238
626.963	206.72439
627.165	159.71787
627.366	190.71499
627.568	192.99091
627.77	175.48286
627.971	211.40435
628.173	197.34575
628.374	173.97557
628.576	171.4851
628.777	236.19855
628.979	143.32065
629.18	128.27586
629.382	125.45302
629.583	197.41123
629.785	181.80602
629.986	135.56139
630.188	163.96316
630.389	162.88141
630.591	183.50942
630.792	136.84108
630.993	124.15639
631.195	136.18483
631.396	152.83222
631.597	139.99083
631.799	142.63176
632	158.01301
632.201	137.44809
632.402	185.04895
632.604	188.84827
632.805	127.324
633.006	175.66307
633.207	186.14622
633.409	184.00077
633.61	146.83047
633.811	153.70122
634.012	188.60264
634.213	167.55231
634.414	156.04573
634.615	162.45526
634.816	181.83877
635.017	177.51429
635.219	190.3875
635.42	166.55264
635.621	154.1603
635.822	206.46255
636.023	168.37169
636.224	170.97714
636.425	155.99655
636.626	174.63092
636.826	137.44809
637.027	184.34471
637.228	161.71766
637.429	129.53948
637.63	142.02486
637.831	116.3753
638.032	125.60073
638.233	116.49022
638.433	120.36461
638.634	163.38951
638.835	148.8804
639.036	171.61618
639.237	108.96972
639.437	96.02566
639.638	138.62927
639.839	144.45237
640.039	108.165
640.24	166.66736
640.441	126.47059
640.641	96.6993
640.842	157.43923
641.043	117.83647
641.243	100.9379
641.444	121.72708
641.645	155.29157
641.845	118.18123
642.046	119.01849
642.246	120.16762
642.447	85.52463
642.647	136.75905
642.848	167.68341
643.048	161.29149
643.249	132.32908
643.449	122.31802
643.65	101.62784
643.85	98.50653
644.05	140.79462
644.251	104.61739
644.451	124.84574
644.651	113.58407
644.852	108.27996
645.052	128.68613
645.252	118.60807
645.453	96.91289
645.653	106.80185
645.853	106.17774
646.054	104.37101
646.254	111.08815
646.454	81.67817
646.654	94.69477
646.854	112.97653
647.055	138.46522
647.255	90.73457
647.455	163.86482
647.655	112.73023
647.855	146.35487
648.055	129.58871
648.255	104.51884
648.455	117.08127
648.655	116.40813
648.856	130.83586
649.056	124.74727
649.256	148.25724
649.456	111.05531
649.656	113.22283
649.856	136.80827
650.055	118.46032
650.255	165.68405
650.455	156.78348
650.655	151.42209
650.855	201.53624
651.055	261.4612
651.255	255.69491
651.455	272.7454
651.655	204.53141
651.854	205.16968
652.054	155.29157
652.254	203.64762
652.454	253.66908
652.654	235.8062
652.853	354.2013
653.053	458.82355
653.253	934.614
653.452	2708.51538
653.652	9823.03507
653.852	24981.58388
654.051	50239.60074
654.251	63403.63474
654.451	63403.63474
654.65	63403.63474
654.85	63403.63474
655.049	63403.63474
655.249	63403.63474
655.449	63403.63474
655.648	63403.63474
655.848	63403.63474
656.047	63403.63474
656.247	63403.63474
656.446	63403.63474
656.645	63403.63474
656.845	63403.63474
657.044	63403.63474
657.244	61618.91622
657.443	15244.99383
657.643	3537.32277
657.842	2683.47933
658.041	2121.0067
658.241	1843.42039
658.44	1535.68098
658.639	1364.07146
658.839	1276.22843
659.038	1135.82382
659.237	1032.84011
659.436	946.52879
659.636	908.77188
659.835	823.94601
660.034	810.73823
660.233	757.05288
660.432	693.68477
660.631	690.17334
660.831	666.63075
661.03	627.92057
661.229	628.79205
661.428	580.0822
661.627	567.53749
661.826	558.48155
662.025	530.61831
662.224	486.42663
662.423	489.57136
662.622	432.91704
662.821	459.71593
663.02	471.37936
663.219	417.56728
663.418	449.57375
663.617	444.16862
663.816	413.4727
664.015	355.12934
664.214	373.03319
664.412	352.6545
664.611	376.23847
664.81	365.44978
665.009	386.21006
665.208	349.03957
665.406	306.44116
665.605	340.09804
665.804	311.21904
666.003	324.9613
666.201	271.17796
666.4	289.99795
666.599	289.8511
666.798	273.02296
666.996	287.24019
667.195	251.16928
667.394	255.51521
667.592	304.28841
667.791	269.16956
667.989	273.41481
668.188	268.90829
668.386	295.62688
668.585	250.09086
668.783	271.47187
668.982	275.83105
669.18	283.56821
669.379	263.6498
669.577	209.19537
669.776	210.96257
669.974	247.03513
670.173	239.87658
670.371	224.93263
670.57	235.78985
670.768	230.60702
670.966	257.47556
671.165	258.71705
671.363	223.72238
671.561	234.26943
671.76	279.1449
671.958	273.25154
672.156	241.59284
672.354	195.0047
672.553	220.64747
672.751	169.79734
672.949	203.53305
673.147	228.80835
673.345	197.52582
673.543	235.21766
673.742	177.67811
673.94	176.35115
674.138	190.76411
674.336	191.10797
674.534	183.98439
674.732	235.16861
674.93	197.67316
675.128	161.55375
675.326	162.66833
675.524	165.12682
675.722	207.96809
675.92	162.45526
676.118	159.78343
676.316	179.39814
676.514	181.49481
676.712	147.38807
676.91	192.48334
677.108	174.18856
677.305	200.6851
677.503	176.302
677.701	188.78277
677.899	161.04561
678.097	179.33262
678.295	153.7504
678.492	156.07852
678.69	199.71935
678.888	172.18966
679.085	202.55103
679.283	162.48804
679.481	142.2873
679.679	156.06213
679.876	157.19333
680.074	182.60859
680.271	145.68245
680.469	160.09489
680.667	173.68066
680.864	170.51834
681.062	183.7551
681.259	180.18441
681.457	111.18668
681.654	169.46961
681.852	125.58432
682.049	147.24047
682.247	130.47485
682.444	117.83647
682.642	156.07852
682.839	126.65112
683.037	143.41907
683.234	175.25349
683.431	145.05922
683.629	114.79911
683.826	132.08295
684.023	152.58627
684.221	192.76169
684.418	181.47843
684.615	193.94052
684.813	186.9323
685.01	184.96706
685.207	145.33803
685.404	107.4588
685.601	179.48005
685.799	177.3177
685.996	149.53634
686.193	125.60073
686.39	116.86784
686.587	149.71672
686.784	167.35566
686.981	158.35727
687.179	164.7007
687.376	102.58059
687.573	142.81219
687.77	154.06192
687.967	122.51499
688.164	119.26474
688.361	128.17739
688.558	131.9845
688.755	128.40715
688.952	164.99571
689.148	137.13638
689.345	123.8117
689.542	141.54917
689.739	126.0767
689.936	118.73941
690.133	134.31445
690.33	111.61362
690.526	132.96901
690.723	203.56579
690.92	157.34087
691.117	120.775
691.314	110.57908
691.51	101.43072
691.707	122.4165
691.904	126.68395
692.1	169.38768
692.297	112.20477
692.494	100.62578
692.69	181.67498
692.887	158.07858
693.084	134.16678
693.28	100.6422
693.477	117.52454
693.673	122.51499
693.87	129.42461
694.066	95.30272
694.263	107.80369
694.459	111.44941
694.656	123.97584
694.852	129.98255
695.049	133.49407
695.245	141.74601
695.442	124.40259
695.638	85.34383
695.834	110.26707
696.031	117.57379
696.227	126.32288
696.423	140.18768
696.62	136.23405
696.816	155.91458
697.012	103.25406
697.209	122.08821
697.405	135.29888
697.601	162.04548
697.797	104.73237
697.994	114.76627
698.19	87.67775
698.386	131.65632
698.582	134.57697
698.778	91.88489
698.974	87.69419
699.17	90.38946
699.367	123.79529
699.563	158.32448
699.759	84.88359
699.955	95.68062
700.151	113.63333
700.347	92.5422
700.543	149.07718
700.739	164.5368
700.935	104.58454
701.131	92.75582
701.327	93.62672
701.523	136.93951
701.718	105.71786
701.914	105.32366
702.11	133.52688
702.306	140.46655
702.502	106.4241
702.698	83.22339
702.894	89.94575
703.089	96.25569
703.285	100.03438
703.481	93.90606
703.677	127.19271
703.872	95.22056
704.068	99.49225
704.264	72.89829
704.459	59.27891
704.655	84.9329
704.851	85.8698
705.046	52.61474
705.242	64.70775
705.438	67.15859
705.633	75.79235
705.829	82.02338
706.024	109.34743
706.22	154.96367
706.415	125.58432
706.611	96.55143
706.806	140.15487
707.002	96.04209
707.197	98.98297
707.393	111.9092
707.588	82.10558
707.784	123.17156
707.979	95.84493
708.174	67.42176
708.37	91.99992
708.565	93.24879
708.76	88.31873
708.956	101.61141
709.151	92.21355
709.346	82.31928
709.542	70.15194
709.737	69.39541
709.932	116.94993
710.127	97.3072
710.322	79.91913
710.518	76.77889
710.713	88.89395
710.908	58.52207
711.103	95.69705
711.298	112.27046
711.493	67.60268
711.688	90.34016
711.883	97.96438
712.078	130.16306
712.273	135.41373
712.468	67.14214
712.663	93.61029
712.858	105.04444
713.053	93.36381
713.248	115.52154
713.443	88.25299
713.638	53.51985
713.833	66.73094
714.028	85.72187
714.223	132.21422
714.418	172.5829
714.613	100.1658
714.807	151.32371
715.002	93.31452
715.197	96.12424
715.392	54.63885
715.587	62.50344
715.781	96.84717
715.976	65.5631
716.171	123.23722
716.365	96.99504
716.56	113.30493
716.755	59.54215
716.949	77.27214
717.144	95.38487
717.339	73.7205
717.533	97.17576
717.728	124.05791
717.922	63.17791
718.117	70.43152
718.312	104.12463
718.506	83.70009
718.701	127.53735
718.895	140.66339
719.089	110.33276
719.284	109.87294
719.478	85.16302
719.673	54.3591
719.867	101.61141
720.062	89.96218
720.256	80.97128
720.45	100.72434
720.645	62.61859
720.839	91.81916
721.033	92.52577
721.228	69.675
721.422	95.15484
721.616	73.65472
721.81	77.71607
722.005	95.86136
722.199	99.65653
722.393	73.76983
722.587	49.88278
722.781	110.71046
722.975	112.56603
723.169	87.97359
723.364	101.79211
723.558	80.33013
723.752	86.69161
723.946	124.02508
724.14	91.21114
724.334	85.88624
724.528	75.00309
724.722	73.17784
724.916	114.0274
725.11	93.84034
725.304	79.62321
725.498	106.12847
725.692	91.7863
725.885	120.92274
726.079	129.91691
726.273	86.60943
726.467	68.4086
726.661	78.8505
726.855	100.14937
727.048	117.49171
727.242	65.97432
727.436	96.30498
727.63	71.84583
727.823	112.69739
728.017	54.12872
728.211	74.64134
728.405	113.40345
728.598	82.64805
728.792	77.91336
728.986	120.13479
729.179	100.67506
729.373	81.08635
729.566	96.50214
729.76	95.08912
729.953	78.1271
730.147	129.32615
730.34	89.74854
730.534	157.39005
730.727	106.3584
730.921	126.53624
731.114	111.30162
731.308	105.29081
731.501	102.66272
731.695	87.11895
731.888	91.3426
732.081	83.70009
732.275	91.24401
732.468	96.1571
732.661	103.58258
732.855	72.19117
733.048	58.9334
733.241	50.45882
733.434	104.71594
733.628	110.16854
733.821	111.74499
734.014	94.84265
734.207	130.0646
734.4	82.53298
734.594	95.86136
734.787	113.17357
734.98	99.34439
735.173	105.01159
735.366	48.2698
735.559	111.30162
735.752	58.60434
735.945	58.45626
736.138	68.4086
736.331	100.7572
736.524	119.54381
736.717	86.13278
736.91	85.83693
737.103	91.99992
737.296	86.69161
737.489	105.76713
737.682	40.63153
737.875	74.06582
738.067	84.29185
738.26	109.29817
738.453	92.67366
738.646	80.82332
738.839	95.77921
739.031	104.55169
739.224	78.78474
739.417	116.07977
739.61	120.95557
739.802	74.19737
739.995	33.91332
740.188	123.64756
740.38	79.52457
740.573	91.12897
740.765	68.80333
740.958	34.93434
741.151	95.6149
741.343	42.67301
741.536	68.73754
741.728	72.0925
741.921	90.8496
742.113	55.01732
742.306	73.04629
742.498	62.7831
742.691	66.94477
742.883	55.39579
743.076	70.3164
743.268	45.71847
743.46	106.30913
743.653	57.58422
743.845	85.90267
744.037	84.65347
744.23	60.10153
744.422	79.31084
744.614	59.50924
744.807	63.11211
744.999	80.64249
745.191	81.64529
745.383	92.08209
745.575	61.68089
745.768	78.14354
745.96	82.20421
746.152	90.12652
746.344	66.12235
746.536	100.1658
746.728	83.51928
746.92	101.33215
747.112	63.44111
747.304	74.32891
747.496	78.7683
747.688	58.01202
747.88	37.3385
748.072	102.69557
748.264	63.42466
748.456	59.78893
748.648	71.69782
748.84	76.33495
749.032	61.63154
749.224	81.94119
749.416	102.67915
749.608	115.35735
749.799	84.19322
749.991	80.82332
750.183	100.52721
750.375	53.33883
750.567	79.01491
750.758	33.58395
750.95	71.36892
751.142	67.80005
751.333	57.68295
751.525	72.70096
751.717	80.03421
751.908	136.8903
752.1	60.87477
752.292	76.71312
752.483	77.71607
752.675	63.11211
752.866	84.43979
753.058	118.23048
753.249	98.95011
753.441	87.59558
753.632	37.58549
753.824	56.89316
754.015	68.39215
754.207	108.55915
754.398	105.14299
754.589	68.95135
754.781	61.71379
754.972	69.51054
755.164	83.07545
755.355	64.11556
755.546	72.5694
755.738	54.62239
755.929	88.12151
756.12	111.02246
756.311	128.04611
756.503	86.77379
756.694	88.91038
756.885	76.95975
757.076	144.55078
757.267	145.96126
757.458	129.99896
757.65	91.70413
757.841	97.37292
758.032	130.0646
758.223	104.73237
758.414	119.47815
758.605	119.26474
758.796	53.50339
758.987	129.47384
759.178	71.91161
759.369	47.06823
759.56	86.14922
759.751	66.40198
759.942	89.46916
760.133	76.66379
760.324	68.03031
760.514	79.47524
760.705	104.86377
760.896	58.01202
761.087	94.41544
761.278	59.21309
761.468	53.7996
761.659	99.45939
761.85	85.0644
762.041	42.06387
762.231	95.89422
762.422	64.90514
762.613	104.50241
762.803	76.95975
762.994	133.21513
763.185	58.73596
763.375	86.88884
763.566	76.05543
763.757	59.39407
763.947	63.32596
764.138	95.72991
764.328	102.74485
764.519	116.45739
764.709	93.24879
764.9	79.88625
765.09	90.34016
765.281	77.73251
765.471	62.63504
765.661	71.08935
765.852	69.4283
766.042	73.80272
766.232	30.07594
766.423	45.02709
766.613	70.54664
766.803	52.84513
766.994	95.07268
767.184	61.40122
767.374	132.72289
767.564	118.26332
767.755	85.11371
767.945	51.28171
768.135	66.00722
768.325	105.42221
768.515	88.05577
768.706	77.91336
768.896	96.41999
769.086	97.24148
769.276	86.79023
769.466	62.7831
769.656	73.75339
769.846	73.27651
770.036	94.11967
770.226	79.88625
770.416	75.26618
770.606	86.87241
770.796	128.53844
770.986	88.49951
771.176	70.85911
771.366	70.892
771.555	88.94325
771.745	51.62732
771.935	84.19322
772.125	82.15489
772.315	51.92355
772.504	77.18993
772.694	69.92169
772.884	96.14067
773.074	33.48514
773.263	62.19087
773.453	76.72956
773.643	100.0508
773.832	105.40579
774.022	89.17334
774.212	62.93115
774.401	47.21638
774.591	47.77601
774.781	33.76511
774.97	77.46944
775.16	40.99374
775.349	43.66076
775.539	48.45085
775.728	33.07343
775.918	83.33846
776.107	122.92535
776.297	189.63427
776.486	336.51415
776.675	376.8567
776.865	278.80211
777.054	141.46716
777.243	95.71348
777.433	71.6156
777.622	113.04221
777.811	73.44095
778.001	94.85908
778.19	52.07166
778.379	41.01021
778.568	86.29715
778.758	56.38308
778.947	76.51581
779.136	85.82049
779.325	99.2294
779.514	40.79617
779.703	91.27687
779.892	50.96901
780.082	65.6289
780.271	33.45221
780.46	71.7636
780.649	83.40421
780.838	71.56626
781.027	53.70086
781.216	47.74309
781.405	42.34375
781.594	90.63597
781.783	103.71399
781.971	112.35256
782.16	58.78532
782.349	122.76121
782.538	59.44343
782.727	100.31365
782.916	58.17655
783.105	90.78387
783.293	52.58183
783.482	106.62119
783.671	96.2064
783.86	70.26706
784.048	32.10175
784.237	24.1129
784.426	57.81458
784.614	52.35143
784.803	79.2122
784.992	16.89616
785.18	30.60299
785.369	79.39304
785.557	59.57505
785.746	68.55662
785.935	77.68318
786.123	57.60068
786.312	29.79594
786.5	80.67537
786.689	64.31296
786.877	66.63225
787.065	88.64743
787.254	19.49969
787.442	29.05474
787.631	56.05398
787.819	93.85677
788.007	93.80747
788.196	90.19226
788.384	82.73024
788.572	118.37824
788.761	40.66446
788.949	56.23499
789.137	57.10706
789.325	49.98153
789.513	42.57423
789.702	65.99077
789.89	76.49937
790.078	53.96416
790.266	31.47591
790.454	53.55276
790.642	48.38502
790.83	104.25603
791.018	55.88944
791.207	63.40821
791.395	102.82699
791.583	30.66888
791.771	88.05577
791.959	58.04493
792.146	32.1841
792.334	21.13088
792.522	46.80487
792.71	61.25316
792.898	53.273
793.086	91.81916
793.274	57.15642
793.462	91.81916
793.65	113.56765
793.837	38.47464
794.025	100.26437
794.213	27.78642
794.401	88.89395
794.588	64.39521
794.776	28.4453
794.964	16.8632
795.151	63.85236
795.339	73.35873
795.527	31.17945
795.714	24.80481
795.902	34.40737
796.089	52.13749
796.277	17.73657
796.465	83.25627
796.652	69.37896
796.84	38.57344
797.027	63.49046
797.215	46.47566
797.402	74.8551
797.59	82.9275
797.777	43.2492
797.964	39.51195
798.152	40.56568
798.339	95.07268
798.526	27.144
798.714	26.81455
798.901	52.20332
799.088	72.83251
799.276	44.96125
799.463	62.10862
799.65	41.30655
799.837	64.28006
800.025	9.33131
800.212	70.34929
800.399	51.0513
800.586	38.70516
800.773	31.65707
800.96	33.48514
801.148	82.5823
801.335	66.10591
801.522	84.96578
801.709	44.54971
801.896	67.42176
802.083	47.18346
802.27	29.25239
802.457	48.38502
802.644	40.96081
802.831	44.13816
803.018	34.9014
803.204	55.19833
803.391	61.64799
803.578	41.94863
803.765	34.65438
803.952	89.78141
804.139	45.55386
804.326	75.31551
804.512	37.15738
804.699	94.61261
804.886	45.57032
805.073	34.35796
805.259	36.77865
805.446	136.33249
805.633	75.05242
805.819	97.01147
806.006	75.06886
806.192	72.94762
806.379	16.87968
806.566	35.85651
806.752	67.61913
806.939	50.40944
807.125	34.67085
807.312	55.29706
807.498	74.39469
807.685	64.64195
807.871	26.63335
808.058	83.05901
808.244	61.94411
808.43	78.58745
808.617	59.29536
808.803	70.43152
808.99	39.92357
809.176	50.9361
809.362	39.31437
809.549	54.11226
809.735	44.15463
809.921	14.14406
810.107	62.56924
810.293	45.48801
810.48	72.81607
810.666	49.30672
810.852	52.36789
811.038	35.77417
811.224	52.25269
811.41	53.0097
811.597	90.48807
811.783	23.25622
811.969	48.05583
812.155	20.98259
812.341	45.83369
812.527	64.64195
812.713	53.99707
812.899	53.84897
813.085	41.40534
813.271	53.76669
813.456	64.06621
813.642	37.35497
813.828	16.05573
814.014	80.60961
814.2	42.8541
814.386	57.35387
814.572	27.55581
814.757	64.11556
814.943	104.56811
815.129	73.86849
815.315	52.77931
815.5	44.96125
815.686	71.91161
815.872	21.06497
816.057	16.35236
816.243	91.88489
816.429	27.40756
816.614	34.76966
816.8	30.30653
816.985	43.79246
817.171	53.68441
817.356	61.89476
817.542	60.00281
817.727	78.09422
817.913	19.23605
818.098	37.45377
818.284	29.15357
818.469	44.74725
818.655	36.43285
818.84	77.453
819.025	21.13088
819.211	88.4009
819.396	84.3576
819.581	37.58549
819.767	42.36021
819.952	57.99556
820.137	70.51375
820.322	85.44245
820.508	120.5616
820.693	72.63518
820.878	42.37667
821.063	56.05398
821.248	78.83406
821.433	10.58403
821.618	52.97679
821.804	43.49614
821.989	14.77031
822.174	50.78798
822.359	78.83406
822.544	21.92172
822.729	75.57859
822.914	3.84173
823.099	43.19981
823.284	43.23274
823.469	27.90173
823.653	60.01927
823.838	60.89122
824.023	45.55386
824.208	34.60498
824.393	75.11819
824.578	45.04356
824.762	25.64497
824.947	40.87849
825.132	52.99324
825.317	40.5986
825.501	66.25394
825.686	47.36452
825.871	38.86981
826.056	55.72489
826.24	58.48916
826.425	87.94072
826.609	13.27058
826.794	16.83025
826.979	51.84126
827.163	36.11998
827.348	29.82888
827.532	15.8415
827.717	48.58253
827.901	49.50423
828.086	70.54664
828.27	20.66954
828.455	67.61913
828.639	69.23094
828.823	71.05646
829.008	17.62122
829.192	35.54363
829.376	56.33371
829.561	15.28119
829.745	17.81896
829.929	12.75966
830.114	40.89496
830.298	110.89109
830.482	32.84286
830.666	65.85918
830.85	31.85471
831.035	62.28958
831.219	20.19172
831.403	9.11703
831.587	7.66642
831.771	69.24739
831.955	45.65262
832.139	24.047
832.323	49.12568
832.507	10.68292
832.691	13.45187
832.875	6.89164
833.059	10.28734
833.243	12.95744
833.427	28.75825
833.611	40.5986
833.795	25.05192
833.979	57.46905
834.163	24.52475
834.346	69.95459
834.53	34.78613
834.714	59.60796
834.898	36.13645
835.082	38.5899
835.265	55.51098
835.449	21.95467
835.633	26.43568
835.816	51.98937
836	25.38139
836.184	60.94058
836.367	59.27891
836.551	70.76044
836.735	75.46349
836.918	21.24621
837.102	45.57032
837.285	27.45698
837.469	42.42606
837.652	80.80688
837.836	28.72531
838.019	35.31309
838.203	46.36044
838.386	19.96104
838.569	19.56559
838.753	96.73216
838.936	34.11094
839.12	43.05165
839.303	46.31106
839.486	62.6515
839.669	15.34711
839.853	44.20401
840.036	38.40878
840.219	34.37443
840.402	10.45217
840.586	43.21628
840.769	37.23971
840.952	7.66642
841.135	64.4939
841.318	22.63017
841.501	21.31212
841.684	9.57856
841.868	64.80644
842.051	40.87849
842.234	50.60694
842.417	25.2496
842.6	45.17525
842.783	61.89476
842.966	33.33693
843.149	114.71702
843.331	49.66882
843.514	148.37203
843.697	184.90155
843.88	182.90341
844.063	129.94973
844.246	83.63434
844.429	34.65438
844.611	47.31514
844.794	54.85277
844.977	63.70432
845.16	56.64635
845.342	51.41337
845.525	32.69464
845.708	16.73137
845.89	40.58214
846.073	13.64964
846.256	40.00589
846.438	51.29817
846.621	89.37055
846.803	45.48801
846.986	14.58903
847.168	32.84286
847.351	78.27507
847.533	57.76522
847.716	66.55001
847.898	63.77012
848.081	0.56063
848.263	41.01021
848.446	15.21527
848.628	54.58948
848.81	25.41434
848.993	22.23476
849.175	19.61503
849.357	38.70516
849.539	29.26887
849.722	15.52839
849.904	22.61369
850.086	50.70569
850.268	85.80405
850.451	94.77693
850.633	42.62362
850.815	17.12686
850.997	90.20869
851.179	19.07128
851.361	49.58652
851.543	41.63583
851.725	46.82133
851.907	31.39356
852.089	69.55987
852.271	41.40534
852.453	83.68366
852.635	68.75399
852.817	30.7677
852.999	16.56658
853.181	24.80481
853.363	32.49701
853.545	34.04507
853.727	36.08705
853.908	27.6217
854.09	52.13749
854.272	77.09128
854.454	55.21478
854.636	79.59033
854.817	25.90854
854.999	60.56218
855.181	43.62784
855.362	50.96901
855.544	22.54779
855.726	76.33495
855.907	43.31505
856.089	20.09286
856.27	42.70593
856.452	42.9858
856.634	76.61447
856.815	45.96538
856.997	64.92159
857.178	32.71111
857.36	4.5012
857.541	9.00164
857.722	53.84897
857.904	52.66411
858.085	43.31505
858.267	47.97353
858.448	25.23313
858.629	49.09276
858.811	20.75192
858.992	48.54961
859.173	60.61154
859.354	36.03765
859.536	96.84717
859.717	4.71553
859.898	46.19583
860.079	47.51266
860.26	49.42194
860.441	69.00069
860.623	46.34398
860.804	31.27827
860.985	58.48916
861.166	34.17681
861.347	-0.19787
861.528	1.13774
861.709	59.98636
861.89	28.00056
862.071	72.35562
862.252	25.43081
862.433	32.67817
862.614	111.12099
862.794	29.5324
862.975	55.88944
863.156	97.88223
863.337	29.21945
863.518	52.76285
863.699	38.49111
863.879	51.24879
864.06	19.31844
864.241	54.30973
864.422	20.75192
864.602	17.35756
864.783	65.36571
864.964	25.82617
865.144	36.95978
865.325	34.852
865.506	60.13443
865.686	48.73066
865.867	54.88568
866.047	31.67354
866.228	43.00226
866.408	16.40179
866.589	42.24497
866.769	69.09937
866.95	30.96534
867.13	30.43829
867.31	34.50617
867.491	52.94387
867.671	-0.47819
867.852	38.12887
868.032	73.95071
868.212	50.47527
868.393	60.15088
868.573	31.2618
868.753	24.27764
868.933	45.30694
869.113	43.90769
869.294	34.80259
869.474	45.04356
869.654	18.26387
869.834	37.23971
870.014	36.84451
870.194	5.5728
870.374	62.53634
870.555	29.12062
870.735	37.00918
870.915	52.92742
871.095	34.96727
871.275	40.81264
871.455	71.40181
871.634	1.28614
871.814	63.26016
871.994	25.15076
872.174	58.07783
872.354	65.95787
872.534	28.93944
872.714	16.25348
872.894	39.38023
873.073	49.25735
873.253	77.15705
873.433	14.01221
873.613	17.48939
873.792	47.85831
873.972	42.11326
874.152	16.53363
874.331	45.01063
874.511	74.88799
874.691	25.06839
874.87	21.44392
875.05	22.97615
875.229	36.74572
875.409	50.32715
875.588	10.35327
875.768	44.26986
875.947	83.51928
876.127	75.38128
876.306	51.80835
876.486	41.14192
876.665	38.98507
876.844	36.05411
877.024	76.91042
877.203	47.43036
877.382	33.6663
877.562	29.76299
877.741	33.04049
877.92	46.93655
878.1	59.34472
878.279	20.88373
878.458	17.58826
878.637	46.03122
878.816	56.16917
878.996	45.12586
879.175	46.01476
879.354	33.83098
879.533	48.87879
879.712	32.00293
879.891	27.16048
880.07	60.23314
880.249	48.3521
880.428	43.5126
880.607	65.21767
880.786	18.13204
880.965	65.51375
881.144	62.38828
881.323	18.13204
881.502	33.15577
881.68	36.84451
881.859	23.38802
882.038	48.22042
882.217	62.79955
882.396	-4.0237
882.574	34.078
882.753	32.80993
882.932	39.89064
883.111	72.01028
883.289	36.05411
883.468	43.56199
883.647	38.35939
883.825	62.09217
884.004	49.42194
884.182	44.94479
884.361	16.56658
884.539	12.2817
884.718	59.49279
884.896	6.80921
885.075	34.91787
885.253	58.99921
885.432	39.51195
885.61	-5.45853
885.789	27.07811
885.967	22.74549
886.145	61.36832
886.324	41.96509
886.502	28.32999
886.68	47.34806
886.859	15.24823
887.037	69.34607
887.215	37.23971
887.393	86.51082
887.572	14.12758
887.75	57.63359
887.928	51.67669
888.106	57.4855
888.284	79.27796
888.462	35.92238
888.64	39.80831
888.819	53.50339
888.997	69.64211
889.175	27.57228
889.353	15.98981
889.531	24.22822
889.709	40.1376
889.887	23.1409
890.065	67.61913
890.242	50.26132
890.42	67.29017
890.598	34.60498
890.776	56.8438
890.954	28.28058
891.132	23.35507
891.309	12.62781
891.487	54.32619
891.665	31.49238
891.843	48.61545
892.02	18.21443
892.198	52.41726
892.376	35.44483
892.553	53.22363
892.731	72.96407
892.909	48.86233
893.086	61.99346
893.264	22.15238
893.441	26.238
893.619	39.11679
893.797	42.8541
893.974	54.02998
894.151	47.95707
894.329	41.83339
894.506	19.7798
894.684	38.45818
894.861	45.76785
895.039	32.79346
895.216	17.58826
895.393	44.02293
895.571	-7.68515
895.748	16.83025
895.925	70.97423
896.102	65.72759
896.28	26.36979
896.457	15.72614
896.634	24.57418
896.811	16.55011
896.988	27.93467
897.166	41.83339
897.343	28.74178
897.52	59.41053
897.697	32.99108
897.874	68.17834
898.051	48.12166
898.228	33.6663
898.405	6.01792
898.582	21.29564
898.759	13.56723
898.936	70.67821
899.113	49.09276
899.29	61.58218
899.467	75.47994
899.643	65.41506
899.82	53.51985
899.997	67.0928
900.174	-6.16773
900.351	59.03211
900.527	23.75046
900.704	39.08386
900.881	70.5302
901.058	24.83776
901.234	41.45473
901.411	60.36476
901.588	22.51484
901.764	54.62239
901.941	63.47401
902.117	52.23623
902.294	25.62849
902.471	73.65472
902.647	13.23762
902.824	24.9366
903	31.57473
903.176	33.99566
903.353	55.72489
903.529	34.55558
903.706	31.87118
903.882	25.95796
904.058	13.58372
904.235	14.32534
904.411	5.37497
904.587	46.27813
904.764	32.64524
904.94	21.06497
905.116	26.92986
905.292	51.10067
905.469	42.19558
905.645	36.35052
905.821	65.23412
905.997	21.69106
906.173	29.68064
906.349	34.19328
906.525	39.018
906.702	38.1618
906.878	18.85707
907.054	27.3252
907.23	45.24109
907.406	34.12741
907.582	65.6289
907.757	38.07947
907.933	17.14334
908.109	48.03937
908.285	39.66013
908.461	56.72862
908.637	1.56644
908.813	13.73204
908.988	37.17384
909.164	47.3316
909.34	47.90769
909.516	24.64007
909.691	20.35649
909.867	63.27661
910.043	39.49548
910.219	52.20332
910.394	67.0599
910.57	45.96538
910.745	68.35926
910.921	63.85236
911.097	-7.04188
911.272	7.56752
911.448	52.33497
911.623	19.21957
911.799	-0.51117
911.974	9.26538
912.149	20.43887
912.325	46.47566
912.5	31.39356
912.676	22.35009
912.851	16.45123
913.026	57.37033
913.202	-2.6879
913.377	30.09241
913.552	3.42956
913.727	81.56309
913.903	34.22622
914.078	25.71086
914.253	52.10457
914.428	43.92416
914.603	-6.39863
914.779	33.7157
914.954	30.35594
915.129	55.39579
915.304	29.68064
915.479	33.22165
915.654	42.50838
915.829	44.64848
916.004	-2.67141
916.179	56.44889
916.354	8.78735
916.529	63.72077
916.704	22.61369
916.879	51.34754
917.053	57.43614
917.228	22.46541
917.403	46.57442
917.578	72.91474
917.753	38.42525
917.927	16.89616
918.102	6.41357
918.277	36.56458
918.452	28.49471
918.626	14.1935
918.801	58.47271
918.976	34.16035
919.15	33.07343
919.325	50.27778
919.499	26.60041
919.674	61.99346
919.849	22.49837
920.023	59.34472
920.198	52.68057
920.372	29.43358
920.547	50.77152
920.721	17.22574
920.895	42.64008
921.07	40.91142
921.244	40.58214
921.419	62.12507
921.593	13.45187
921.767	53.17426
921.942	40.92789
922.116	3.72633
922.29	33.78158
922.464	48.3521
922.639	16.68194
922.813	15.41303
922.987	49.53715
923.161	11.55649
923.335	42.0968
923.509	47.46328
923.683	43.89123
923.858	40.53275
924.032	70.7111
924.206	59.92055
924.38	-22.58357
924.554	28.51118
924.728	28.08292
924.902	87.56271
925.075	54.72112
925.249	45.63616
925.423	66.31974
925.597	53.99707
925.771	20.37296
925.945	29.08768
926.119	71.10579
926.292	45.73493
926.466	23.1409
926.64	38.47464
926.814	45.53739
926.987	3.09981
927.161	7.94666
927.335	7.35322
927.508	47.4962
927.682	-16.0655
927.856	28.77473
928.029	61.02283
928.203	61.99346
928.376	48.25334
928.55	13.36946
928.723	-1.31918
928.897	34.14388
929.07	44.10524
929.244	43.08458
929.417	-5.2936
929.59	33.27105
929.764	37.45377
929.937	51.18296
930.111	71.53337
930.284	11.12795
930.457	8.77087
930.63	10.73237
930.804	35.44483
930.977	40.99374
931.15	36.49872
931.323	84.60416
931.497	27.07811
931.67	21.42745
931.843	71.33603
932.016	8.24338
932.189	32.36526
932.362	60.71025
932.535	59.88765
932.708	40.33518
932.881	38.54051
933.054	43.05165
933.227	62.89825
933.4	14.24294
933.573	32.64524
933.746	18.56047
933.919	45.29048
934.092	22.48189
934.264	38.47464
934.437	28.61001
934.61	11.52353
934.783	30.50417
934.956	17.65418
935.128	67.55334
935.301	62.6844
935.474	4.92985
935.646	17.88487
935.819	5.49038
935.992	38.80395
936.164	2.42382
936.337	24.32706
936.51	17.53883
936.682	30.85005
936.855	10.07306
937.027	86.11635
937.2	37.05858
937.372	31.2618
937.545	38.09594
937.717	31.98646
937.889	24.01405
938.062	49.76757
938.234	44.87894
938.406	19.45025
938.579	27.90173
938.751	48.78004
938.923	45.17525
939.096	69.2145
939.268	42.7224
939.44	51.1665
939.612	38.19473
939.784	50.47527
939.957	48.56607
940.129	55.41224
940.301	42.2779
940.473	38.73809
940.645	73.55606
940.817	59.50924
940.989	33.94626
941.161	33.46868
941.333	43.39736
941.505	12.5454
941.677	29.96064
941.849	2.16001
942.021	32.48054
942.193	15.29767
942.365	6.87515
942.537	42.16265
942.708	56.97543
942.88	52.81222
943.052	4.07255
943.224	11.21036
943.395	17.786
943.567	16.10517
943.739	31.70648
943.911	14.44071
944.082	13.00688
944.254	84.91647
944.425	-4.22161
944.597	36.48225
944.769	42.83764
944.94	43.89123
945.112	88.79534
945.283	75.34839
945.455	3.49551
945.626	48.84587
945.798	23.30564
945.969	32.16763
946.14	45.80077
946.312	50.4259
946.483	17.407
946.655	29.81241
946.826	39.56134
946.997	48.86233
947.168	-4.07318
947.34	24.27764
947.511	64.4939
947.682	39.33083
947.853	20.80135
948.025	75.34839
948.196	9.79285
948.367	36.53165
948.538	5.02877
948.709	28.31352
948.88	17.95078
949.051	33.07343
949.222	15.42951
949.393	47.01885
949.564	31.29474
949.735	22.28419
949.906	28.13233
950.077	22.38304
950.248	48.15458
950.419	27.17695
950.59	9.21593
950.761	5.77063
950.931	50.50819
951.102	60.41412
951.273	24.5577
951.444	41.65229
951.614	52.26915
951.785	27.144
951.956	19.17014
952.126	72.7174
952.297	94.25112
952.468	29.10415
952.638	12.74318
952.809	33.30399
952.98	23.28917
953.15	24.95308
953.321	8.7379
953.491	4.58364
953.662	28.51118
953.832	23.25622
954.002	14.77031
954.173	-21.92344
954.343	29.15357
954.514	0.04947
954.684	5.52335
954.854	51.23234
955.025	26.40273
955.195	49.57006
955.365	28.7912
955.535	18.0167
955.706	48.45085
955.876	51.44628
956.046	69.1816
956.216	39.38023
956.386	49.42194
956.557	45.73493
956.727	8.0126
956.897	38.24413
957.067	16.53363
957.237	31.82177
957.407	50.82089
957.577	53.45402
957.747	16.97856
957.917	31.47591
958.087	3.00089
958.257	44.35217
958.427	25.34844
958.596	-2.09423
958.766	51.75897
958.936	-13.88767
959.106	50.39298
959.276	16.79729
959.445	12.19929
959.615	37.19031
959.785	52.30206
959.955	81.38226
960.124	37.50316
960.294	63.37531
960.464	23.12442
960.633	16.50067
960.803	36.18585
960.972	25.39787
961.142	-7.5202
961.311	24.49181
961.481	29.56534
961.65	42.68947
961.82	37.81602
961.989	83.02613
962.159	36.35052
962.328	77.86404
962.498	59.18019
962.667	-2.39106
962.836	13.89685
963.006	34.68732
963.175	35.16488
963.344	53.50339
963.513	9.23241
963.683	-16.84098
963.852	18.9065
964.021	21.3945
964.19	-0.21436
964.359	21.08145
964.528	40.63153
964.698	13.69908
964.867	28.21469
965.036	46.32752
965.205	79.90269
965.374	44.94479
965.543	49.89923
965.712	23.42097
965.881	20.38944
966.05	11.54001
966.219	15.66022
966.387	33.9792
966.556	35.06608
966.725	24.68949
966.894	40.36811
967.063	42.16265
967.232	36.86098
967.4	29.18651
967.569	27.04517
967.738	89.7321
967.906	5.04525
968.075	49.47131
968.244	-6.51409
968.412	18.21443
968.581	29.05474
968.75	13.69908
968.918	16.12165
969.087	16.36884
969.255	32.3982
969.424	42.42606
969.592	61.2367
969.761	30.323
969.929	35.21428
970.098	35.67537
970.266	-3.0507
970.434	22.95967
970.603	36.89391
970.771	52.10457
970.939	23.61866
971.108	66.28684
971.276	6.2652
971.444	41.0596
971.612	-22.7156
971.781	18.41217
971.949	108.7398
972.117	30.29006
972.285	55.08314
972.453	12.00151
972.621	20.29058
972.789	35.36249
972.957	74.64134
973.125	21.32859
973.293	26.41921
973.461	25.90854
973.629	51.1665
973.797	23.68456
973.965	27.85231
974.133	25.71086
974.301	38.95214
974.469	3.44604
974.637	35.01667
974.805	83.38777
974.972	29.38416
975.14	61.43412
975.308	38.50758
975.476	18.84059
975.643	37.5361
975.811	13.32002
975.979	77.04196
976.146	34.48971
976.314	51.08422
976.482	48.13812
976.649	7.53455
976.817	46.87071
976.984	47.79247
977.152	22.11943
977.319	69.8888
977.487	60.74315
977.654	41.20777
977.822	8.68845
977.989	25.26608
978.156	17.1763
978.324	17.76952
978.491	18.80763
978.658	2.73709
978.826	38.35939
978.993	37.30557
979.16	32.76052
979.328	22.51484
979.495	54.77049
979.662	20.71897
979.829	26.83102
979.996	50.08028
980.163	45.25755
980.33	16.26996
980.498	18.21443
980.665	36.61398
980.832	1.97865
980.999	21.0485
981.166	24.07995
981.333	44.02293
981.5	52.2856
981.667	99.80438
981.833	3.95714
982	63.26016
982.167	10.68292
982.334	27.57228
982.501	39.00153
982.668	40.33518
982.834	7.46861
983.001	55.03378
983.168	71.48404
983.335	2.24245
983.501	23.09147
983.668	20.35649
983.835	31.83824
984.001	42.22851
984.168	24.07995
984.334	34.80259
984.501	47.2493
984.668	23.10795
984.834	11.01258
985.001	-8.26245
985.167	46.42628
985.334	-4.28757
985.5	12.94095
985.666	14.93511
985.833	3.61092
985.999	26.53452
986.165	25.0025
986.332	56.67925
986.498	26.97928
986.664	32.52995
986.831	43.89123
986.997	30.68535
987.163	9.89174
987.329	26.13916
987.495	3.29766
987.662	49.47131
987.828	10.3203
987.994	40.23639
988.16	48.97755
988.326	13.99573
988.492	21.82287
988.658	42.57423
988.824	42.68947
988.99	22.77844
989.156	14.37479
989.322	77.8476
989.488	43.67722
989.654	17.12686
989.82	35.87297
989.985	68.21123
990.151	48.74712
990.317	69.65855
990.483	-1.30269
990.648	48.64836
990.814	42.52484
990.98	34.78613
991.146	46.06414
991.311	44.20401
991.477	46.21229
991.643	-1.43461
991.808	1.13774
991.974	-7.15734
992.139	25.26608
992.305	20.19172
992.47	30.42182
992.636	27.52287
992.801	58.22591
992.967	28.57707
993.132	24.29412
993.298	95.12198
993.463	15.51191
993.628	25.51318
993.794	33.33693
993.959	51.97292
994.124	7.40267
994.29	39.42962
994.455	61.63154
994.62	33.63336
994.785	73.68761
994.95	7.71588
995.116	48.74712
995.281	20.34001
995.446	22.79492
995.611	-19.26658
995.776	22.63017
995.941	33.81451
996.106	17.83544
996.271	37.40437
996.436	50.06382
996.601	67.20793
996.766	23.83283
996.931	38.95214
997.096	37.65136
997.261	4.7485
997.425	57.71585
997.59	2.68762
997.755	30.14182
997.92	28.04997
998.085	24.87071
998.249	8.96867
998.414	-4.46899
998.579	6.57842
998.744	30.53711
998.908	45.04356
999.073	60.89122
999.237	41.14192
999.402	19.96104
999.567	32.62877
999.731	27.16048
999.896	-11.54506
1000.06	73.26006
1000.225	13.64964
1000.389	37.05858
1000.553	46.57442
1000.718	50.44236
1000.882	-16.0325
1001.047	24.88718
1001.211	14.49015
1001.375	78.2093
1001.54	14.70439
1001.704	15.66022
1001.868	57.92975
1002.032	66.38553
1002.197	40.23639
1002.361	24.07995
1002.525	32.6123
1002.689	46.72257
1002.853	2.1765
1003.017	8.68845
1003.181	13.17169
1003.345	34.62145
1003.509	58.88404
1003.673	50.82089
1003.837	57.83103
1004.001	21.57573
1004.165	25.52965
1004.329	48.40148
1004.493	29.38416
1004.657	44.33571
1004.821	1.68186
1004.985	34.65438
1005.149	34.73672
1005.312	33.04049
1005.476	31.97
1005.64	90.4059
1005.804	23.35507
1005.967	52.516
1006.131	42.34375
1006.295	51.21588
1006.458	42.91995
1006.622	28.75825
1006.785	23.81636
1006.949	63.30951
1007.113	23.23974
1007.276	22.54779
1007.44	48.51669
1007.603	8.62251
1007.767	24.44238
1007.93	23.27269
1008.093	33.1393
1008.257	39.6766
1008.42	-1.08832
1008.584	41.47119
1008.747	15.08343
1008.91	45.43863
1009.073	5.42443
1009.237	37.3385
1009.4	25.03545
1009.563	-12.28741
1009.726	19.97752
1009.889	85.60681
1010.053	47.15054
1010.216	24.80481
1010.379	43.28213
1010.542	76.71312
1010.705	39.79185
1010.868	58.88404
1011.031	61.59863
1011.194	36.82805
1011.357	37.83248
1011.52	0.41223
1011.683	23.84931
1011.846	38.07947
1012.009	27.75348
1012.171	25.23313
1012.334	27.55581
1012.497	54.63885
1012.66	24.03053
1012.823	38.24413
1012.985	65.41506
1013.148	50.7386
1013.311	15.19879
1013.473	20.0599
1013.636	-2.40755
1013.799	63.81946
1013.961	55.0996
1014.124	36.97625
1014.286	34.9508
1014.449	8.06205
1014.612	45.42217
1014.774	13.45187
1014.936	20.14229
1015.099	0.93987
1015.261	-2.25913
1015.424	36.18585
1015.586	43.34798
1015.748	22.54779
1015.911	4.97931
1016.073	119.54381
1016.235	52.02229
1016.398	45.07648
1016.56	57.4855
1016.722	-3.44649
1016.884	26.25448
1017.047	44.03939
1017.209	35.18135
1017.371	11.60594
1017.533	10.35327
1017.695	70.28351
1017.857	50.44236
1018.019	56.69571
1018.181	36.20231
1018.343	27.48992
1018.505	41.784
1018.667	-6.43162
1018.829	13.35298
1018.991	39.11679
1019.153	37.84895
1019.315	-9.714
1019.477	17.67065
1019.638	18.06613
1019.8	-10.22536
1019.962	42.17912
1020.124	18.29682
1020.285	29.49946
1020.447	32.99108
1020.609	44.92833
1020.77	10.69941
1020.932	95.54918
1021.094	0.80796
1021.255	32.38173
1021.417	62.8818
1021.578	12.57836
1021.74	35.09901
1021.901	23.15737
1022.063	23.05852
1022.224	40.61507
1022.386	37.3879
1022.547	50.32715
1022.709	34.53911
1022.87	69.41186
1023.031	20.66954
1023.193	18.54399
1023.354	30.09241
1023.515	39.72599
1023.676	47.06823
1023.838	26.36979
1023.999	27.80289
1024.16	51.57794
1024.321	35.34602
1024.482	49.02692
1024.644	57.79812
1024.805	45.94892
1024.966	28.1488
1025.127	9.66098
1025.288	20.02695
1025.449	92.32858
1025.61	36.51518
1025.771	55.59325
1025.932	58.55498
1026.093	45.25755
1026.253	13.35298
1026.414	-20.32269
1026.575	23.56924
1026.736	13.28706
1026.897	25.84265
1027.058	48.10521
1027.218	33.00755
1027.379	2.47328
1027.54	47.89123
1027.7	27.09459
1027.861	41.10899
1028.022	48.02291
1028.182	27.01222
1028.343	20.65306
1028.504	7.12243
1028.664	11.86965
1028.825	33.25458
1028.985	46.29459
1029.146	15.80854
1029.306	19.76332
1029.466	54.67176
1029.627	63.30951
1029.787	24.67302
1029.948	16.17108
1030.108	26.50157
1030.268	62.63504
1030.429	13.61668
1030.589	32.8758
1030.749	26.00738
1030.909	33.30399
1031.07	33.43574
1031.23	25.03545
1031.39	-3.85878
1031.55	39.92357
1031.71	1.68186
1031.87	27.65464
1032.03	57.43614
1032.19	37.76662
1032.35	41.48765
1032.51	64.92159
1032.67	12.23225
1032.83	9.79285
1032.99	25.8097
1033.15	55.29706
1033.31	45.19171
1033.47	9.95768
1033.63	40.40103
1033.79	38.78749
1033.949	14.37479
1034.109	51.03484
1034.269	27.58876
1034.429	65.4973
1034.588	40.43396
1034.748	25.8097
1034.908	33.4028
1035.067	38.49111
1035.227	23.89873
1035.387	36.07058
1035.546	55.19833
1035.706	16.64898
1035.865	44.38509
1036.025	32.24997
1036.184	33.51808
1036.344	44.66494
1036.503	43.85831
1036.662	19.10423
1036.822	41.37241
1036.981	37.65136
1037.14	24.75539
1037.3	15.00103
1037.459	20.81783
1037.618	54.22745
1037.778	44.35217
1037.937	41.68522
1038.096	36.03765
1038.255	36.46578
1038.414	17.45644
1038.573	71.27025
1038.733	42.87056
1038.892	57.65004
1039.051	70.95778
1039.21	69.83946
1039.369	14.32534
1039.528	48.43439
1039.687	43.00226
1039.846	42.73886
1040.005	13.56723
1040.164	39.05093
1040.322	19.94457
1040.481	47.03531
1040.64	16.07221
1040.799	0.19787
1040.958	58.34109
1041.116	35.03314
1041.275	29.48299
1041.434	40.74678
1041.593	3.01737
1041.751	37.32204
1041.91	54.22745
1042.069	9.92471
1042.227	34.09447
1042.386	69.85591
1042.544	14.73735
1042.703	45.68554
1042.861	34.76966
1043.02	11.24333
1043.178	50.78798
1043.337	69.41186
1043.495	46.31106
1043.653	10.53458
1043.812	18.65934
1043.97	37.65136
1044.129	12.75966
1044.287	33.50161
1044.445	43.33151
1044.603	3.28117
1044.762	-12.22142
1044.92	72.68451
1045.078	28.51118
1045.236	34.04507
1045.394	22.63017
1045.552	71.13868
