Data from deut_20ms_200_SR4014911__0__16-09-37-096.txt Node

Date: Sun Jul 13 16:09:37 EDT 2025
User: cryst
Spectrometer: SR401491
Trigger mode: 0
Integration Time (sec): 2.000000E-2
Scans to average: 200
Electric dark correction enabled: true
Nonlinearity correction enabled: true
Boxcar width: 0
XAxis mode: Wavelengths
Number of Pixels in Spectrum: 3648
>>>>>Begin Spectral Data<<<<<
344.912	-37.27405
345.129	-26.92804
345.347	-28.38245
345.565	-14.20137
345.783	8.15479
346.001	8.55733
346.219	4.04198
346.437	-0.06602
346.654	21.69643
346.872	15.07875
347.09	1.52829
347.308	18.4884
347.526	3.40542
347.743	9.04146
347.961	16.77003
348.179	14.10526
348.397	8.45398
348.614	33.9541
348.832	35.68222
349.05	38.27419
349.268	36.33431
349.485	43.41936
349.703	25.87174
349.921	44.39721
350.138	37.04073
350.356	42.8272
350.574	27.80695
350.791	37.79603
351.009	37.61128
351.227	47.51522
351.444	25.21395
351.662	37.98077
351.879	27.46449
352.097	42.59359
352.314	27.80151
352.532	40.75182
352.75	29.15498
352.967	34.00301
353.185	36.12238
353.402	38.3394
353.62	25.92066
353.837	49.69327
354.055	32.93239
354.272	44.95131
354.49	44.99476
354.707	49.0578
354.925	29.55177
355.142	42.41974
355.359	40.90395
355.577	45.84219
355.794	43.3596
356.012	46.70588
356.229	38.85559
356.446	35.90502
356.664	35.35073
356.881	50.18752
357.099	22.41955
357.316	39.77927
357.533	42.76201
357.751	39.7684
357.968	53.82076
358.185	51.71908
358.402	39.95314
358.62	45.46194
358.837	42.8435
359.054	35.50289
359.272	23.97445
359.489	41.17017
359.706	41.51245
359.923	43.84853
360.141	37.39393
360.358	48.17246
360.575	40.03464
360.792	39.90967
361.009	26.66541
361.226	40.68119
361.444	50.2364
361.661	51.09995
361.878	29.48655
362.095	40.1759
362.312	35.87242
362.529	50.05174
362.746	36.5245
362.963	33.14434
363.181	31.28018
363.398	48.9709
363.615	44.94587
363.832	38.55131
364.049	29.7094
364.266	59.343
364.483	39.92597
364.7	44.39721
364.917	23.8929
365.134	41.51788
365.351	33.92149
365.568	44.03867
365.785	35.92676
366.002	37.31242
366.219	28.53533
366.436	41.02891
366.652	46.51033
366.869	45.89108
367.086	35.20401
367.303	39.38807
367.52	38.18182
367.737	53.53295
367.954	45.11427
368.171	39.20876
368.387	48.4549
368.604	42.84893
368.821	42.8435
369.038	39.12183
369.255	40.57796
369.471	37.75799
369.688	42.61532
369.905	50.48624
370.122	42.78917
370.339	43.21292
370.555	31.55737
370.772	31.4541
370.989	51.34435
371.205	40.58882
371.422	42.197
371.639	29.66048
371.855	40.08353
372.072	37.27438
372.289	39.28483
372.505	58.5123
372.722	29.31261
372.939	49.37282
373.155	46.32564
373.372	40.74639
373.589	43.68012
373.805	43.14229
374.022	36.2202
374.238	34.53015
374.455	36.11152
374.671	40.02377
374.888	38.3394
375.104	28.67122
375.321	32.70413
375.537	34.57363
375.754	41.60481
375.97	50.60029
376.187	52.76723
376.403	37.78516
376.62	41.2571
376.836	41.09954
377.053	35.49202
377.269	38.39917
377.486	29.06258
377.702	25.7902
377.918	25.63798
378.135	40.59969
378.351	42.39801
378.568	36.63862
378.784	38.26333
379	40.2737
379.217	24.53984
379.433	42.73484
379.649	46.13009
379.865	38.35026
380.082	46.40169
380.298	45.69552
380.514	46.93402
380.731	39.83904
380.947	28.3179
381.163	44.32115
381.379	39.13813
381.596	45.42391
381.812	41.56678
382.028	48.94374
382.244	31.82912
382.46	38.41547
382.676	46.86884
382.893	42.82177
383.109	32.53022
383.325	43.21835
383.541	39.71407
383.757	25.15415
383.973	35.71482
384.189	54.56473
384.405	33.76932
384.622	45.18489
384.838	44.38091
385.054	47.03722
385.27	36.16586
385.486	39.7684
385.702	32.14434
385.918	45.98885
386.134	41.15387
386.35	47.45004
386.566	48.8514
386.782	49.49774
386.998	39.00229
387.214	45.51083
387.43	40.74095
387.646	63.85987
387.861	45.65206
388.077	47.38486
388.293	43.59863
388.509	49.11212
388.725	30.37794
388.941	44.40807
389.157	37.83406
389.373	55.29239
389.588	45.77157
389.804	44.39178
390.02	51.09452
390.236	39.44783
390.452	38.49154
390.668	48.50379
390.883	40.74095
391.099	46.14638
391.315	34.6008
391.531	44.25053
391.746	40.81702
391.962	54.21719
392.178	41.52875
392.393	48.47663
392.609	52.96273
392.825	44.00607
393.041	41.09954
393.256	51.69736
393.472	43.71272
393.687	50.03544
393.903	49.82906
394.119	48.5581
394.334	39.68147
394.55	62.44843
394.766	54.0054
394.981	67.19274
395.197	52.62603
395.412	72.79907
395.628	54.40182
395.843	55.10776
396.059	80.44416
396.274	64.305
396.49	63.28444
396.705	51.64848
396.921	38.4209
397.136	52.91386
397.352	44.34288
397.567	52.54457
397.783	43.71272
397.998	64.09872
398.214	42.18613
398.429	46.99377
398.644	64.5167
398.86	52.89756
399.075	48.79166
399.29	46.55378
399.506	39.08379
399.721	46.05947
399.936	46.61353
400.152	47.09154
400.367	42.24046
400.582	51.88201
400.798	50.87728
401.013	39.99117
401.228	54.08686
401.444	55.77567
401.659	41.83299
401.874	60.44515
402.089	52.51741
402.304	61.32465
402.52	42.37628
402.735	47.54781
402.95	39.36633
403.165	59.5276
403.38	55.49873
403.596	44.4135
403.811	48.15616
404.026	65.48836
404.241	43.63666
404.456	50.1495
404.671	54.15745
404.886	59.5276
405.101	32.56282
405.316	56.65533
405.532	55.64535
405.747	56.23179
405.962	53.44606
406.177	54.87969
406.392	43.50628
406.607	67.48041
406.822	51.19771
407.037	64.20186
407.252	73.72701
407.467	82.49478
407.682	76.90131
407.896	83.96484
408.111	69.19009
408.326	93.10346
408.541	97.90204
408.756	118.63197
408.971	112.2277
409.186	119.21706
409.401	101.5072
409.616	68.54965
409.83	43.00104
410.045	51.23573
410.26	33.9867
410.475	42.62619
410.69	39.43697
410.905	55.3304
411.119	40.69749
411.334	58.57202
411.549	39.06206
411.764	56.93768
411.978	56.23179
412.193	57.73043
412.408	34.11713
412.623	50.21468
412.837	56.61189
413.052	49.15014
413.267	50.75236
413.481	52.04493
413.696	39.99117
413.911	54.09229
414.125	37.08963
414.34	41.83299
414.554	40.1596
414.769	58.46886
414.984	45.95083
415.198	31.47041
415.413	36.07891
415.627	56.83452
415.842	41.46898
416.056	56.64447
416.271	39.44783
416.485	60.37457
416.7	47.75965
416.914	56.40012
417.129	41.18103
417.343	59.83707
417.558	45.72268
417.772	55.10233
417.987	43.88112
418.201	44.56018
418.415	34.68231
418.63	50.05174
418.844	45.20119
419.059	60.51572
419.273	44.38634
419.487	58.46886
419.702	48.4712
419.916	68.22943
420.13	57.20375
420.345	50.94788
420.559	37.58955
420.773	58.07793
420.988	43.23465
421.202	64.56556
421.416	41.20277
421.63	55.08061
421.845	47.18932
422.059	55.24351
422.273	37.98621
422.487	57.61098
422.701	62.33442
422.916	70.4058
423.13	45.46194
423.344	57.07886
423.558	40.31716
423.772	48.37886
423.986	45.64663
424.201	47.9389
424.415	58.83264
424.629	52.57715
424.843	48.37886
425.057	62.06841
425.271	36.18759
425.485	46.7602
425.699	39.92597
425.913	62.22042
426.127	43.62036
426.341	52.07752
426.555	48.59612
426.769	59.38101
426.983	59.70677
427.197	58.77291
427.411	45.26638
427.625	60.5483
427.839	43.50085
428.053	50.74693
428.267	38.31766
428.481	61.29751
428.695	42.33282
428.908	45.72811
429.122	48.17246
429.336	59.41359
429.55	50.05174
429.764	55.26523
429.978	68.19143
430.191	80.82934
430.405	98.62311
430.619	104.67826
430.833	121.24852
431.047	163.80428
431.26	205.77661
431.474	256.45907
431.688	265.04561
431.901	289.58375
432.115	331.26454
432.329	386.24285
432.543	410.22452
432.756	486.4324
432.97	490.80268
433.184	356.13934
433.397	160.37496
433.611	69.79795
433.824	52.4794
434.038	59.5819
434.252	49.17729
434.465	56.98112
434.679	47.47177
434.892	53.72844
435.106	34.94316
435.319	45.34786
435.533	59.16926
435.747	58.8815
435.96	37.01356
436.174	62.43757
436.387	51.09995
436.601	50.30701
436.814	57.16031
437.027	48.85684
437.241	49.75845
437.454	46.93402
437.668	55.04803
437.881	62.61129
438.095	51.02391
438.308	62.57872
438.521	56.15577
438.735	61.40066
438.948	57.41008
439.161	58.25711
439.375	39.15443
439.588	58.9358
439.801	53.13651
440.015	61.96527
440.228	53.58725
440.441	66.35684
440.654	64.15843
440.868	78.29572
441.081	47.19475
441.294	68.70705
441.507	47.89001
441.721	49.20988
441.934	58.42
442.147	52.56086
442.36	52.90299
442.573	60.7166
442.786	45.17946
443	67.80607
443.213	50.02458
443.426	59.52217
443.639	61.27579
443.852	60.75461
444.065	66.56853
444.278	65.4775
444.491	67.24701
444.704	62.86101
444.917	58.65347
445.13	68.6582
445.343	56.25351
445.556	74.9805
445.769	70.27012
445.982	78.83284
446.195	59.37015
446.408	60.75461
446.621	67.96347
446.834	60.5103
447.047	56.30238
447.26	63.22473
447.473	48.82968
447.686	65.88461
447.899	55.98201
448.111	63.95215
448.324	66.79108
448.537	59.5819
448.75	50.02458
448.963	55.8354
449.176	68.28913
449.388	70.24298
449.601	62.96415
449.814	54.59731
450.027	53.4895
450.239	63.5233
450.452	49.8888
450.665	53.98911
450.878	51.64305
451.09	65.64577
451.303	58.47972
451.516	55.2761
451.728	60.57544
451.941	50.06803
452.154	55.42814
452.366	73.63476
452.579	51.33891
452.792	70.09645
453.004	59.27785
453.217	56.64447
453.429	57.3775
453.642	57.78473
453.854	58.25168
454.067	80.13492
454.28	81.42609
454.492	48.48206
454.705	52.35992
454.917	52.4794
455.13	66.17772
455.342	69.30949
455.555	41.17017
455.767	81.59969
455.979	56.82909
456.192	64.71755
456.404	48.92201
456.617	65.14095
456.829	47.59127
457.041	68.68534
457.254	62.61129
457.466	53.83162
457.679	58.63175
457.891	78.34997
458.103	51.97433
458.315	63.84901
458.528	56.23722
458.74	60.23884
458.952	55.86798
459.165	64.4787
459.377	50.06803
459.589	51.17055
459.801	43.55517
460.014	68.29998
460.226	59.1204
460.438	60.17912
460.65	45.99429
460.862	68.89701
461.075	50.46994
461.287	53.3646
461.499	40.62142
461.711	48.53094
461.923	49.15557
462.135	63.93586
462.347	54.19003
462.559	57.90418
462.771	50.45365
462.983	52.78895
463.196	60.02167
463.408	68.62021
463.62	58.5503
463.832	71.14388
464.044	55.93314
464.256	72.54944
464.468	47.76508
464.68	65.77062
464.891	56.19921
465.103	58.19738
465.315	63.33873
465.527	58.02363
465.739	39.77927
465.951	57.52953
466.163	50.33959
466.375	51.87658
466.587	58.05078
466.799	51.29547
467.01	45.42391
467.222	58.24082
467.434	54.33665
467.646	55.6182
467.858	51.88744
468.069	60.72746
468.281	42.5121
468.493	49.31851
468.705	39.26853
468.916	50.95874
469.128	39.51303
469.34	45.61947
469.551	39.4424
469.763	38.68171
469.975	42.4795
470.186	54.74393
470.398	37.79059
470.61	48.68303
470.821	32.49217
471.033	42.39801
471.245	59.7502
471.456	51.19771
471.668	47.84656
471.879	46.44514
472.091	48.76993
472.302	61.93269
472.514	57.18746
472.725	55.2761
472.937	36.86684
473.148	44.80463
473.36	43.22922
473.571	63.09987
473.783	38.49697
473.994	61.04235
474.206	37.36676
474.417	55.85712
474.629	52.98445
474.84	63.38759
475.051	61.00977
475.263	50.63831
475.474	43.84853
475.685	52.71292
475.897	46.96118
476.108	67.13846
476.319	38.46437
476.531	46.95575
476.742	56.40555
476.953	60.31485
477.165	68.21857
477.376	52.64232
477.587	48.34084
477.798	51.84399
478.01	41.85472
478.221	60.35285
478.432	52.20786
478.643	47.93347
478.854	50.38304
479.065	76.70598
479.277	54.36924
479.488	60.18997
479.699	60.18997
479.91	65.8249
480.121	62.07384
480.332	65.32008
480.543	55.36841
480.754	51.58331
480.965	44.0278
481.176	66.3677
481.387	64.02272
481.598	65.80319
481.809	66.63367
482.02	97.99963
482.231	205.55519
482.442	408.64779
482.653	786.78655
482.864	1308.75779
483.075	2095.55279
483.286	3067.0567
483.497	4195.7023
483.708	5089.10178
483.919	5827.73978
484.13	6521.04443
484.341	7434.25158
484.551	8751.36882
484.762	9882.39426
484.973	10203.95266
485.184	6895.49279
485.395	2107.06216
485.605	581.77691
485.816	264.97555
486.027	149.0617
486.238	112.15725
486.449	107.2311
486.659	92.84318
486.87	75.92464
487.081	85.26125
487.291	68.44653
487.502	73.66189
487.713	60.33113
487.923	72.10444
488.134	59.04439
488.345	86.98608
488.555	74.66035
488.766	57.73586
488.976	66.28628
489.187	75.85953
489.398	65.92803
489.608	79.89079
489.819	59.59275
490.029	57.58383
490.24	71.13845
490.45	84.45303
490.661	57.62727
490.871	59.18012
491.082	57.07886
491.292	63.55587
491.503	57.68156
491.713	76.95557
491.924	64.89125
492.134	72.63626
492.344	63.27901
492.555	73.58049
492.765	63.17587
492.975	74.92081
493.186	69.81423
493.396	78.16008
493.607	53.294
493.817	82.38086
494.027	61.89469
494.237	65.64034
494.448	52.76723
494.658	76.57034
494.868	50.87184
495.078	66.75308
495.289	71.86024
495.499	63.11073
495.709	54.08686
495.919	65.29294
496.129	58.15395
496.34	55.85712
496.55	45.14144
496.76	63.17587
496.97	62.43757
497.18	56.06889
497.39	51.79511
497.6	66.88878
497.81	70.36781
498.021	70.03675
498.231	67.74094
498.441	65.29837
498.651	61.41152
498.861	57.35035
499.071	59.73935
499.281	72.86961
499.491	53.00075
499.701	74.42702
499.911	58.98466
500.121	72.83163
500.331	58.38199
500.54	82.30491
500.75	63.2953
500.96	68.57136
501.17	47.09154
501.38	64.90211
501.59	65.76519
501.8	66.15058
502.01	48.08012
502.219	74.1774
502.429	65.81947
502.639	77.31367
502.849	66.45997
503.059	70.69886
503.268	63.3713
503.478	57.39379
503.688	61.16178
503.898	62.46471
504.107	56.11776
504.317	79.41336
504.527	67.94719
504.736	67.58896
504.946	56.86167
505.156	71.67572
505.365	59.20184
505.575	60.0271
505.785	61.71554
505.994	68.15887
506.204	51.8277
506.413	64.56556
506.623	51.44753
506.832	59.32672
507.042	61.48209
507.251	67.83864
507.461	63.20301
507.67	69.71112
507.88	52.56086
508.089	64.62527
508.299	58.89779
508.508	66.70423
508.718	51.07279
508.927	62.94244
509.137	68.47367
509.346	67.99604
509.555	58.48515
509.765	68.186
509.974	96.35141
510.184	67.02447
510.393	57.05171
510.602	67.46413
510.812	70.25927
511.021	66.62824
511.23	76.32617
511.439	59.28328
511.649	51.38779
511.858	72.57657
512.067	58.26254
512.276	68.94043
512.486	97.94
512.695	69.65684
512.904	45.9454
513.113	63.65358
513.322	60.1954
513.531	70.66087
513.741	63.58844
513.95	53.78818
514.159	52.77809
514.368	61.98698
514.577	49.38369
514.786	61.37894
514.995	47.72706
515.204	60.03253
515.413	45.3207
515.622	55.85169
515.831	49.41084
516.04	65.0161
516.249	46.9829
516.458	56.67705
516.667	55.98744
516.876	73.87352
517.085	57.725
517.294	68.34883
517.503	57.89875
517.712	65.59149
517.921	58.64261
518.13	70.08017
518.339	61.58524
518.547	82.33204
518.756	47.43918
518.965	59.07696
519.174	48.84054
519.383	65.49378
519.591	54.49414
519.8	48.17246
520.009	53.66871
520.218	65.12467
520.426	48.89486
520.635	63.89244
520.844	59.83707
521.053	70.12901
521.261	62.25299
521.47	69.40176
521.679	51.88744
521.887	60.56459
522.096	51.1271
522.304	51.55072
522.513	42.45234
522.722	55.91685
522.93	67.15474
523.139	64.26157
523.347	48.1453
523.556	57.19832
523.764	44.0604
523.973	57.60012
524.182	45.38589
524.39	63.27901
524.598	53.59811
524.807	55.68336
525.015	44.8155
525.224	55.71051
525.432	56.63361
525.641	51.43667
525.849	55.41728
526.057	66.10173
526.266	64.98353
526.474	56.99741
526.683	47.20018
526.891	73.46111
527.099	55.30868
527.308	67.36643
527.516	45.65749
527.724	64.73926
527.932	50.4102
528.141	62.74158
528.349	65.75976
528.557	61.58524
528.765	46.8634
528.974	41.15387
529.182	48.19419
529.39	64.93468
529.598	54.0597
529.806	53.01161
530.015	52.30018
530.223	52.40337
530.431	40.68119
530.639	46.59724
530.847	48.19419
531.055	57.57297
531.263	53.01704
531.471	54.28778
531.679	49.01978
531.887	59.37558
532.095	55.2055
532.303	63.2193
532.511	45.28267
532.719	58.82721
532.927	58.25711
533.135	59.09868
533.343	63.40387
533.551	61.0532
533.759	47.35227
533.967	67.58354
534.175	53.28857
534.383	70.37324
534.591	63.5613
534.798	66.75308
535.006	52.61517
535.214	60.75461
535.422	55.10233
535.63	72.85333
535.837	45.43478
536.045	59.94566
536.253	56.36211
536.461	62.9533
536.668	55.47701
536.876	70.43294
537.084	69.5483
537.292	68.05031
537.499	61.92726
537.707	70.10188
537.915	66.04745
538.122	74.9805
538.33	62.09013
538.538	67.64867
538.745	67.70837
538.953	73.45026
539.16	49.17186
539.368	53.78275
539.575	43.40849
539.783	63.78387
539.99	62.68186
540.198	64.70669
540.406	56.80737
540.613	64.36471
540.82	48.24307
541.028	67.00819
541.235	50.75236
541.443	74.89368
541.65	72.05017
541.858	67.47498
542.065	55.7268
542.272	65.71091
542.48	74.50841
542.687	60.01081
542.895	64.25614
543.102	67.89291
543.309	58.68061
543.516	67.34471
543.724	65.36351
543.931	59.14755
544.138	64.54384
544.346	68.28913
544.553	58.96838
544.76	63.46901
544.967	57.91504
545.174	68.46824
545.382	60.2497
545.589	65.73262
545.796	63.13244
546.003	55.23265
546.21	58.39828
546.417	81.11687
546.624	57.36664
546.832	66.27542
547.039	60.55373
547.246	77.06409
547.453	56.88339
547.66	67.80607
547.867	62.70901
548.074	57.64899
548.281	56.41098
548.488	54.17917
548.695	53.34831
548.902	63.62101
549.109	60.08139
549.316	55.46615
549.523	51.00762
549.73	61.91641
549.936	58.47972
550.143	57.50238
550.35	55.16206
550.557	68.37597
550.764	44.40807
550.971	64.153
551.178	51.33891
551.384	68.49538
551.591	69.55915
551.798	67.97433
552.005	54.89055
552.211	68.224
552.418	49.83992
552.625	54.98829
552.832	55.50959
553.038	67.9092
553.245	64.50585
553.452	67.65952
553.658	62.01955
553.865	59.33215
554.072	50.62201
554.278	69.97162
554.485	73.40684
554.691	70.99735
554.898	61.67753
555.105	70.76399
555.311	55.07518
555.518	66.80193
555.724	62.33985
555.931	54.75479
556.137	47.54238
556.344	64.67955
556.55	58.41457
556.757	69.78167
556.963	60.09768
557.17	55.21636
557.376	56.487
557.582	79.22347
557.789	50.86098
557.995	67.58896
558.202	55.61277
558.408	66.56311
558.614	52.30018
558.821	66.25371
559.027	64.13129
559.233	69.97705
559.439	78.50189
559.646	64.229
559.852	63.59387
560.058	76.03859
560.264	64.75555
560.471	65.86289
560.677	65.18981
560.883	71.76255
561.089	70.05303
561.295	61.73725
561.502	53.82619
561.708	68.29456
561.914	59.59818
562.12	80.76424
562.326	58.06707
562.532	81.40439
562.738	68.09916
562.944	68.43025
563.15	64.6307
563.356	59.63619
563.562	60.2497
563.768	67.07333
563.974	54.01083
564.18	75.16499
564.386	53.21254
564.592	63.51787
564.798	50.86641
565.004	79.01731
565.21	53.08764
565.416	69.5483
565.622	61.62325
565.828	76.79822
566.034	74.45957
566.239	71.41523
566.445	72.92388
566.651	78.8437
566.857	85.69518
567.063	75.44172
567.268	71.39895
567.474	92.24126
567.68	79.294
567.886	100.87295
568.091	98.57974
568.297	104.91133
568.503	95.02842
568.708	115.59257
568.914	107.16065
569.12	118.64281
569.325	89.07417
569.531	109.95712
569.737	85.90672
569.942	100.4501
570.148	98.99719
570.353	126.90872
570.559	114.49266
570.765	108.8028
570.97	112.93755
571.176	138.8482
571.381	99.36043
571.587	90.15883
571.792	88.46674
571.998	99.69655
572.203	92.69134
572.408	123.45316
572.614	129.97395
572.819	129.6707
573.025	112.10848
573.23	120.32761
573.435	120.80432
573.641	122.87358
573.846	97.82614
574.051	117.40758
574.257	122.14231
574.462	127.22284
574.667	109.45313
574.873	115.67926
575.078	127.74276
575.283	126.77874
575.488	132.40532
575.694	148.42313
575.899	108.9708
576.104	132.23746
576.309	128.97211
576.514	139.91465
576.719	158.91981
576.925	182.64718
577.13	160.283
577.335	147.98478
577.54	132.04794
577.745	124.21147
577.95	125.29474
578.155	125.35431
578.36	100.6561
578.565	118.13897
578.77	139.31377
578.975	156.84243
579.18	135.01514
579.385	143.46558
579.59	158.62228
579.795	134.86895
580	103.00334
580.205	121.88772
580.41	161.02408
580.615	239.75294
580.82	238.98157
581.024	212.36997
581.229	190.52122
581.434	178.69042
581.639	143.82282
581.844	126.30214
582.049	108.41259
582.253	136.74766
582.458	114.98573
582.663	99.57186
582.868	93.14684
583.072	103.69717
583.277	121.27019
583.482	142.46964
583.686	143.86612
583.891	141.72265
584.096	137.48937
584.3	155.51153
584.505	128.45221
584.71	147.4003
584.914	140.45057
585.119	143.66044
585.323	124.78561
585.528	104.72162
585.733	107.03057
585.937	123.96773
586.142	96.22128
586.346	138.90775
586.551	125.00226
586.755	143.02174
586.959	149.09417
587.164	161.8084
587.368	123.79982
587.573	150.79876
587.777	205.22575
587.982	609.68518
588.186	1346.23827
588.39	603.88694
588.595	381.25633
588.799	743.75037
589.003	336.23795
589.208	153.92626
589.412	121.2431
589.616	121.54104
589.82	111.5395
590.025	102.90577
590.229	87.82133
590.433	97.67433
590.637	100.48263
590.842	115.22413
591.046	131.06241
591.25	117.79766
591.454	87.3549
591.658	100.85126
591.862	135.94638
592.067	206.38147
592.271	166.28676
592.475	147.72501
592.679	145.57644
592.883	133.07133
593.087	131.3115
593.291	128.12727
593.495	116.49196
593.699	106.53736
593.903	128.18143
594.107	164.52363
594.311	166.81135
594.515	149.18617
594.719	131.43063
594.923	123.8919
595.127	128.70674
595.33	133.98099
595.534	100.93258
595.738	130.43425
595.942	121.71438
596.146	109.11171
596.35	113.07302
596.553	118.7024
596.757	116.37819
596.961	161.59745
597.165	114.12421
597.369	97.94542
597.572	108.29336
597.776	108.13077
597.98	133.45036
598.183	158.50326
598.387	128.7609
598.591	114.75274
598.794	114.16214
598.998	124.47687
599.202	129.23746
599.405	149.78143
599.609	132.38907
599.812	148.85606
600.016	135.39955
600.22	149.83013
600.423	157.57819
600.627	145.17052
600.83	111.71291
601.034	157.22654
601.237	159.34717
601.441	117.28839
601.644	116.58949
601.847	151.34528
602.051	127.06578
602.254	128.57136
602.458	140.10953
602.661	160.2235
602.864	123.70774
603.068	130.81873
603.271	108.1091
603.475	109.61571
603.678	109.92461
603.881	119.385
604.084	87.2193
604.288	109.65364
604.491	126.8004
604.694	133.62904
604.897	98.3683
605.101	114.59561
605.304	121.57354
605.507	105.7352
605.71	83.84008
605.913	131.42522
606.116	117.45634
606.32	119.32541
606.523	111.74542
606.726	112.51489
606.929	124.27105
607.132	121.42728
607.335	120.94517
607.538	114.1784
607.741	97.60385
607.944	91.09703
608.147	82.77144
608.35	102.11976
608.553	96.12911
608.756	103.28521
608.959	105.24197
609.162	134.59282
609.365	116.4432
609.568	121.21602
609.771	91.72609
609.973	116.70326
610.176	106.02246
610.379	105.48045
610.582	95.19651
610.785	114.31928
610.988	99.1761
611.19	92.43105
611.393	91.80201
611.596	90.25102
611.799	78.66466
612.001	110.42318
612.204	93.99818
612.407	94.97962
612.609	91.22175
612.812	108.85699
613.015	102.66184
613.217	100.59647
613.42	81.87635
613.623	97.05625
613.825	105.22571
614.028	122.38607
614.23	90.14798
614.433	85.93384
614.636	93.76501
614.838	126.09091
615.041	113.9725
615.243	82.42426
615.446	75.24638
615.648	83.24881
615.85	79.52187
616.053	77.87252
616.255	83.66107
616.458	88.68911
616.66	78.84912
616.863	72.34865
617.065	80.53638
617.267	88.53182
617.47	70.0856
617.672	74.69833
617.874	69.08154
618.077	85.22328
618.279	73.02698
618.481	91.25972
618.683	63.21387
618.886	70.61746
619.088	92.22499
619.29	99.70197
619.492	65.9226
619.694	86.2864
619.897	76.49437
620.099	66.34056
620.301	46.48317
620.503	54.8634
620.705	57.55125
620.907	71.71914
621.109	60.36371
621.311	79.18007
621.513	85.16904
621.715	91.03737
621.917	82.22897
622.119	90.99941
622.321	69.04898
622.523	85.77654
622.725	58.9358
622.927	71.71914
623.129	65.33094
623.331	74.13942
623.533	55.97115
623.735	80.79679
623.937	73.56964
624.139	69.98248
624.341	74.76887
624.542	55.56932
624.744	58.77291
624.946	74.74174
625.148	63.11073
625.35	77.01526
625.551	56.13948
625.753	49.28049
625.955	56.33496
626.156	70.15072
626.358	70.44922
626.56	68.38683
626.762	76.16339
626.963	71.96335
627.165	56.17206
627.366	80.62319
627.568	67.52926
627.77	64.14757
627.971	68.48452
628.173	75.30607
628.374	52.70206
628.576	65.6132
628.777	83.66107
628.979	58.79463
629.18	46.72217
629.382	49.15557
629.583	58.55573
629.785	64.92382
629.986	48.70475
630.188	61.17264
630.389	57.27433
630.591	68.69619
630.792	48.55267
630.993	56.10147
631.195	46.47774
631.396	45.96712
631.597	47.04809
631.799	52.82153
632	67.37185
632.201	52.51198
632.402	58.04535
632.604	64.45156
632.805	49.6281
633.006	60.26598
633.207	61.85669
633.409	62.405
633.61	56.96483
633.811	50.86098
634.012	58.44171
634.213	69.75996
634.414	47.34684
634.615	57.1223
634.816	67.1656
635.017	71.22529
635.219	60.76003
635.42	70.76399
635.621	53.85335
635.822	67.71923
636.023	59.66877
636.224	61.69925
636.425	52.96816
636.626	56.98655
636.826	42.23503
637.027	71.54548
637.228	49.86164
637.429	48.90572
637.63	52.44138
637.831	48.10728
638.032	41.96338
638.233	42.64792
638.433	40.45843
638.634	52.06666
638.835	49.87251
639.036	60.47229
639.237	33.62802
639.437	37.31785
639.638	43.12056
639.839	49.28049
640.039	39.10553
640.24	55.09147
640.441	38.17095
640.641	44.18534
640.842	47.75422
641.043	49.01435
641.243	37.53521
641.444	45.61947
641.645	50.81753
641.845	46.10293
642.046	40.74095
642.246	45.07082
642.447	29.01366
642.647	51.76253
642.848	53.19625
643.048	51.92002
643.249	43.31071
643.449	50.63831
643.65	39.3772
643.85	41.06151
644.05	43.29984
644.251	30.28011
644.451	35.29096
644.651	50.21468
644.852	37.88297
645.052	49.44886
645.252	35.68765
645.453	37.04073
645.653	31.87803
645.853	43.91915
646.054	33.07913
646.254	40.99631
646.454	29.82354
646.654	37.14941
646.854	31.85085
647.055	52.98989
647.255	38.36113
647.455	65.38522
647.655	36.51363
647.855	57.78473
648.055	41.88189
648.255	44.25596
648.455	46.30391
648.655	52.43595
648.856	48.6613
649.056	48.94374
649.256	44.57104
649.456	46.39082
649.656	49.80733
649.856	54.09229
650.055	44.48413
650.255	57.90961
650.455	52.72378
650.655	57.66528
650.855	70.73685
651.055	96.60082
651.255	84.16554
651.455	91.25429
651.655	71.59975
651.854	69.37462
652.054	62.49729
652.254	76.17424
652.454	83.72616
652.654	88.32573
652.853	117.34799
653.053	170.58054
653.253	293.39593
653.452	801.38137
653.652	3221.86096
653.852	8531.3576
654.051	16891.19969
654.251	28894.85638
654.451	44019.15948
654.65	60424.56572
654.85	63493.38578
655.049	63493.38578
655.249	63493.38578
655.449	63493.38578
655.648	63466.80075
655.848	34355.21123
656.047	8774.73622
656.247	7283.43969
656.446	5354.84337
656.645	4237.55462
656.845	2785.21869
657.044	2113.16837
657.244	1334.08635
657.443	1131.7192
657.643	793.42758
657.842	781.19925
658.041	586.89124
658.241	641.33875
658.44	476.09533
658.639	528.35008
658.839	425.54243
659.038	468.00304
659.237	370.98547
659.436	418.64845
659.636	332.28617
659.835	379.13587
660.034	309.22084
660.233	351.37884
660.432	269.20052
660.631	322.95034
660.831	269.66393
661.03	309.27465
661.229	252.0543
661.428	287.62362
661.627	229.01661
661.826	268.97958
662.025	219.15611
662.224	256.38359
662.423	209.46498
662.622	235.18375
662.821	189.77552
663.02	234.87624
663.219	171.30512
663.418	222.01153
663.617	181.09049
663.816	208.15817
664.015	159.66633
664.214	194.61138
664.412	169.05562
664.611	196.71837
664.81	159.58518
665.009	197.23158
665.208	143.37357
665.406	172.4298
665.605	146.00941
665.804	172.04049
666.003	141.75513
666.201	146.97276
666.4	126.00967
666.599	161.6894
666.798	130.19057
666.996	151.14507
667.195	117.30465
667.394	145.12181
667.592	121.62229
667.791	135.71358
667.989	115.41919
668.188	141.78761
668.386	134.05137
668.585	147.34618
668.783	118.01437
668.982	134.98807
669.18	111.68039
669.379	132.90889
669.577	97.84241
669.776	130.79165
669.974	108.88409
670.173	129.61113
670.371	96.62251
670.57	121.08059
670.768	107.62675
670.966	128.75548
671.165	112.49322
671.363	126.74083
671.561	103.00876
671.76	128.43055
671.958	112.01636
672.156	125.19724
672.354	89.76836
672.553	103.91941
672.751	79.04986
672.949	105.52382
673.147	98.18939
673.345	98.88334
673.543	95.19651
673.742	93.84093
673.94	85.31549
674.138	101.50178
674.336	84.81104
674.534	94.85491
674.732	99.81582
674.93	93.17938
675.128	73.29831
675.326	94.65971
675.524	81.22537
675.722	110.15222
675.92	75.62621
676.118	88.67284
676.316	78.34997
676.514	100.3471
676.712	69.14124
676.91	96.30803
677.108	79.54357
677.305	112.2006
677.503	78.91965
677.701	90.09917
677.899	64.94011
678.097	94.27472
678.295	66.42741
678.492	78.13838
678.69	83.04267
678.888	84.87613
679.085	81.55629
679.283	83.79668
679.481	67.12218
679.679	82.26152
679.876	73.96577
680.074	90.37576
680.271	61.03692
680.469	69.4506
680.667	74.45957
680.864	88.66741
681.062	71.58889
681.259	90.03952
681.457	59.62533
681.654	86.42742
681.852	55.8897
682.049	75.79442
682.247	50.35046
682.444	73.75957
682.642	66.02031
682.839	61.09121
683.037	60.69489
683.234	83.44409
683.431	60.456
683.629	66.20486
683.826	57.64356
684.023	85.73857
684.221	67.92005
684.418	90.86926
684.615	74.86655
684.813	87.41456
685.01	71.88737
685.207	73.50995
685.404	45.67379
685.601	81.07889
685.799	73.15722
685.996	74.63322
686.193	53.65785
686.39	61.72097
686.587	55.5476
686.784	81.58884
686.981	63.76758
687.179	72.582
687.376	44.2288
687.573	78.29029
687.77	57.27433
687.967	69.75996
688.164	58.6969
688.361	59.26699
688.558	46.14638
688.755	65.90089
688.952	67.44784
689.148	67.70837
689.345	53.0985
689.542	73.45568
689.739	49.67698
689.936	56.82366
690.133	51.70822
690.33	56.54673
690.526	63.88701
690.723	79.75516
690.92	56.64447
691.117	65.04867
691.314	54.93942
691.51	53.33201
691.707	52.46311
691.904	59.9728
692.1	62.68186
692.297	61.00434
692.494	41.7352
692.69	84.14927
692.887	61.88383
693.084	58.06707
693.28	39.2794
693.477	58.57745
693.673	39.6869
693.87	57.07343
694.066	44.36461
694.263	58.43628
694.459	48.2648
694.656	57.92047
694.852	47.22191
695.049	60.57002
695.245	45.97256
695.442	72.88589
695.638	33.04652
695.834	52.07752
696.031	47.12413
696.227	63.49616
696.423	56.54673
696.62	68.51166
696.816	58.90322
697.012	54.13573
697.209	54.55387
697.405	68.33255
697.601	53.96739
697.797	55.29782
697.994	40.3715
698.19	52.32191
698.386	57.07886
698.582	65.77062
698.778	35.32356
698.974	49.22074
699.17	39.18703
699.367	50.12234
699.563	54.55387
699.759	47.75422
699.955	43.67469
700.151	54.5593
700.347	38.99686
700.543	70.36238
700.739	58.26254
700.935	46.35823
701.131	32.87261
701.327	55.46072
701.523	55.85169
701.718	48.82968
701.914	46.43428
702.11	62.17156
702.306	52.27846
702.502	48.00408
702.698	35.3616
702.894	52.78895
703.089	34.82361
703.285	51.92002
703.481	39.35003
703.677	57.12773
703.872	38.16009
704.068	53.6144
704.264	33.27477
704.459	39.25766
704.655	24.56159
704.851	42.52296
705.046	26.41535
705.242	38.44264
705.438	30.03552
705.633	45.33156
705.829	33.85628
706.024	53.33745
706.22	45.77157
706.415	53.9348
706.611	38.66541
706.806	64.50042
707.002	32.02477
707.197	53.82076
707.393	36.59514
707.588	48.19962
707.784	40.61056
707.979	49.19902
708.174	38.81755
708.37	50.75236
708.565	35.50833
708.76	49.16643
708.956	35.09532
709.151	41.90362
709.346	32.02477
709.542	37.00812
709.737	34.67145
709.932	39.69777
710.127	31.64433
710.322	41.7515
710.518	33.39434
710.713	40.65946
710.908	26.02939
711.103	50.04631
711.298	43.0934
711.493	40.00747
711.688	28.27442
711.883	46.39626
712.078	44.38091
712.273	53.99997
712.468	31.27474
712.663	44.38091
712.858	35.06272
713.053	48.94917
713.248	41.81126
713.443	40.49646
713.638	35.51919
713.833	37.80146
714.028	32.45956
714.223	64.18557
714.418	52.43595
714.613	48.6613
714.807	48.368
715.002	43.75618
715.197	34.48668
715.392	35.83981
715.587	25.68691
715.781	38.80125
715.976	21.95197
716.171	46.51033
716.365	39.12183
716.56	47.39029
716.755	30.70406
716.949	44.35375
717.144	37.53521
717.339	42.5121
717.533	30.61709
717.728	47.72163
717.922	29.88877
718.117	40.54536
718.312	39.92597
718.506	36.7962
718.701	48.48749
718.895	58.47972
719.089	42.92499
719.284	44.81007
719.478	24.86059
719.673	32.17152
719.867	36.66035
720.062	44.77747
720.256	23.77329
720.45	44.17991
720.645	19.70097
720.839	45.92367
721.033	32.86174
721.228	37.34502
721.422	32.53022
721.616	38.70888
721.81	31.21496
722.005	47.35227
722.199	38.80125
722.393	35.66592
722.587	25.85543
722.781	42.7946
722.975	44.41894
723.169	46.60267
723.364	42.95215
723.558	33.39977
723.752	28.98648
723.946	46.49403
724.14	23.4036
724.334	40.2411
724.528	31.13343
724.722	46.31478
724.916	38.4209
725.11	41.56678
725.304	37.8069
725.498	48.40059
725.692	31.95412
725.885	47.9226
726.079	45.4891
726.273	36.7799
726.467	17.73255
726.661	32.21499
726.855	40.81158
727.048	49.03064
727.242	35.16053
727.436	47.55325
727.63	27.05136
727.823	45.14144
728.017	29.57351
728.211	39.62714
728.405	36.54624
728.598	38.06771
728.792	32.69869
728.986	45.66293
729.179	33.03565
729.373	38.06228
729.566	33.73672
729.76	38.66541
729.953	32.29652
730.147	46.84168
730.34	32.61174
730.534	59.28871
730.727	41.95795
730.921	45.69009
731.114	38.00251
731.308	43.57147
731.501	35.85068
731.695	35.24205
731.888	27.0568
732.081	35.82351
732.275	32.94869
732.468	41.58308
732.661	31.43236
732.855	38.99142
733.048	29.0354
733.241	34.03562
733.434	40.60512
733.628	48.6613
733.821	38.67085
734.014	47.30338
734.207	33.66063
734.4	40.21937
734.594	29.34523
734.787	37.89384
734.98	30.62253
735.173	41.56134
735.366	18.51015
735.559	54.64075
735.752	27.16552
735.945	28.394
736.138	19.55416
736.331	42.63162
736.524	45.54885
736.717	44.13645
736.91	33.50303
737.103	43.46825
737.296	27.66018
737.489	43.20205
737.682	15.35067
737.875	24.98019
738.067	24.39306
738.26	43.7942
738.453	35.25835
738.646	37.84493
738.839	35.89959
739.031	37.67105
739.224	28.73101
739.417	45.86392
739.61	49.12841
739.802	35.19314
739.995	25.80107
740.188	47.53695
740.38	26.44797
740.573	30.88885
740.765	24.03969
740.958	27.79064
741.151	31.7639
741.343	23.08827
741.536	22.7675
741.728	28.64948
741.921	19.32035
742.113	28.16027
742.306	24.18104
742.498	28.11135
742.691	26.18704
742.883	30.31272
743.076	16.47638
743.268	30.62796
743.46	38.42633
743.653	30.13879
743.845	25.31181
744.037	38.31766
744.23	19.55416
744.422	36.11695
744.614	22.96323
744.807	27.64387
744.999	25.26832
745.191	33.5139
745.383	25.94241
745.575	30.05726
745.768	26.21422
745.96	36.83424
746.152	23.34924
746.344	20.23927
746.536	33.89975
746.728	45.19576
746.92	32.19325
747.112	27.59495
747.304	30.38881
747.496	35.11163
747.688	21.17991
747.88	26.65997
748.072	33.80193
748.264	24.34413
748.456	20.02178
748.648	22.55003
748.84	20.09246
749.032	33.04108
749.224	23.34924
749.416	39.57824
749.608	31.62802
749.799	37.04073
749.991	31.70411
750.183	50.04088
750.375	16.49813
750.567	32.77478
750.758	8.49206
750.95	34.52472
751.142	15.78029
751.333	33.49216
751.525	20.05984
751.717	41.46355
751.908	33.55737
752.1	32.45413
752.292	24.5181
752.483	37.29612
752.675	24.59964
752.866	40.3878
753.058	43.59863
753.249	42.78374
753.441	34.24756
753.632	25.40422
753.824	16.55795
754.015	26.02939
754.207	32.2313
754.398	40.55079
754.589	28.0896
754.781	31.56824
754.972	21.03311
755.164	36.66035
755.355	28.38857
755.546	34.20952
755.738	22.43042
755.929	35.45942
756.12	41.7189
756.311	47.2382
756.503	25.39879
756.694	40.23567
756.885	32.465
757.076	58.39285
757.267	43.21292
757.458	51.93089
757.65	33.19325
757.841	40.3389
758.032	42.50123
758.223	43.22922
758.414	44.2288
758.605	37.81233
758.796	26.52951
758.987	43.07167
759.178	26.76869
759.369	30.52469
759.56	30.43773
759.751	34.49211
759.942	39.52934
760.133	34.4595
760.324	30.56274
760.514	33.7965
760.705	35.35617
760.896	35.25835
761.087	34.23669
761.278	35.33986
761.468	22.94692
761.659	34.64427
761.85	29.02997
762.041	23.5069
762.231	35.19314
762.422	29.31805
762.613	35.68765
762.803	28.14396
762.994	47.5967
763.185	28.20919
763.375	36.00827
763.566	26.68715
763.757	25.17046
763.947	33.89432
764.138	29.80724
764.328	45.58688
764.519	39.54564
764.709	40.56166
764.9	28.81798
765.09	29.60613
765.281	13.36561
765.471	27.85587
765.661	19.11916
765.852	25.15415
766.042	18.50471
766.232	12.50083
766.423	18.3307
766.613	28.50815
766.803	19.92934
766.994	38.69258
767.184	21.88129
767.374	52.79438
767.564	35.19314
767.755	39.79557
767.945	20.75581
768.135	36.86684
768.325	41.43095
768.515	46.70045
768.706	26.80674
768.896	40.92025
769.086	32.76391
769.276	45.54342
769.466	18.24914
769.656	32.9976
769.846	26.79044
770.036	36.90488
770.226	26.12724
770.416	23.3438
770.606	30.20945
770.796	42.78374
770.986	20.90805
771.176	24.4583
771.366	25.24114
771.555	28.7908
771.745	17.50416
771.935	34.97577
772.125	27.67105
772.315	24.4583
772.504	37.76886
772.694	29.55177
772.884	23.67544
773.074	20.40783
773.263	20.8863
773.453	29.67679
773.643	30.80189
773.832	36.05174
774.022	25.67604
774.212	28.06786
774.401	22.00634
774.591	16.26973
774.781	9.68333
774.97	31.63346
775.16	15.09507
775.349	29.44306
775.539	17.22682
775.728	20.15227
775.918	26.57843
776.107	50.86641
776.297	71.46407
776.486	125.32723
776.675	141.84715
776.865	116.27524
777.054	54.89055
777.243	46.00515
777.433	34.7747
777.622	44.38634
777.811	29.41589
778.001	34.23126
778.19	25.39879
778.379	22.52285
778.568	23.27856
778.758	24.61052
778.947	17.78693
779.136	28.27442
779.325	21.00048
779.514	22.98498
779.703	30.70949
779.892	20.89174
780.082	17.78693
780.271	25.51839
780.46	27.89392
780.649	32.23673
780.838	18.71678
781.027	26.28488
781.216	12.05484
781.405	19.58678
781.594	20.0979
781.783	40.29
781.971	22.94148
782.16	30.25293
782.349	35.07902
782.538	26.52407
782.727	24.34957
782.916	33.44325
783.105	29.35066
783.293	29.00279
783.482	37.97534
783.671	38.00794
783.86	28.18201
784.048	26.32294
784.237	6.80025
784.426	26.14898
784.614	14.9156
784.803	33.60629
784.992	6.26711
785.18	29.47024
785.369	16.53076
785.557	28.88321
785.746	26.30663
785.935	31.78564
786.123	14.30105
786.312	12.89243
786.5	17.12894
786.689	24.28433
786.877	23.64282
787.065	32.77478
787.254	0.64136
787.442	16.42743
787.631	23.57214
787.819	27.66561
788.007	28.89408
788.196	35.57354
788.384	25.80107
788.572	44.58734
788.761	8.22007
788.949	22.27819
789.137	15.01893
789.325	22.71857
789.513	11.19546
789.702	21.03854
789.89	19.82603
790.078	25.28463
790.266	13.47982
790.454	25.07261
790.642	17.38452
790.83	34.6171
791.018	26.61105
791.207	28.06243
791.395	23.94727
791.583	19.30404
791.771	21.70187
791.959	29.59526
792.146	15.60627
792.334	19.68466
792.522	11.79921
792.71	25.93697
792.898	11.54901
793.086	31.26387
793.274	13.39824
793.462	34.15517
793.65	30.04639
793.837	28.42118
794.025	22.77294
794.213	25.89348
794.401	30.89972
794.588	27.16552
794.776	3.04089
794.964	12.72383
795.151	10.98334
795.339	30.76384
795.527	13.03928
795.714	15.07875
795.902	12.16362
796.089	27.59495
796.277	0.47812
796.465	28.6223
796.652	19.76622
796.84	21.00592
797.027	17.36277
797.215	18.17845
797.402	22.99041
797.59	35.10076
797.777	14.63824
797.964	19.13003
798.152	9.37328
798.339	30.75297
798.526	10.11849
798.714	8.09495
798.901	14.81771
799.088	32.77478
799.276	10.20008
799.463	20.89174
799.65	13.47438
799.837	24.69206
800.025	8.48118
800.212	31.37801
800.399	15.54101
800.586	17.12894
800.773	8.97075
800.96	14.46965
801.148	23.53952
801.335	27.29598
801.522	21.14729
801.709	18.82553
801.896	20.0544
802.083	28.25811
802.27	10.14568
802.457	22.40867
802.644	8.72596
802.831	24.32239
803.018	16.78635
803.204	24.03425
803.391	20.75037
803.578	19.33666
803.765	8.04056
803.952	31.44867
804.139	19.13547
804.326	22.44129
804.512	8.27447
804.699	29.17673
804.886	18.95059
805.073	21.22341
805.259	12.89787
805.446	51.61589
805.633	19.3421
805.819	33.38347
806.006	27.07854
806.192	30.24206
806.379	7.03417
806.566	16.17184
806.752	13.83877
806.939	25.37161
807.125	5.3205
807.312	24.37675
807.498	24.30608
807.685	30.16053
807.871	11.98413
808.058	21.99003
808.244	14.23035
808.43	23.7896
808.617	14.61105
808.803	24.37675
808.99	-0.43605
809.176	21.57138
809.362	8.23639
809.549	25.75214
809.735	13.24052
809.921	15.57908
810.107	15.68784
810.293	16.65583
810.48	20.92436
810.666	19.5596
810.852	17.84674
811.038	19.07566
811.224	17.5966
811.41	24.49635
811.597	23.8331
811.783	12.22345
811.969	11.46198
812.155	12.86524
812.341	6.51192
812.527	16.22622
812.713	15.18208
812.899	18.06969
813.085	11.28793
813.271	27.83956
813.456	18.77659
813.642	12.00589
813.828	6.88185
814.014	24.62139
814.2	5.90806
814.386	17.47153
814.572	4.87983
814.757	22.22382
814.943	23.8331
815.129	19.53785
815.315	22.17489
815.5	20.35889
815.686	26.785
815.872	14.69262
816.057	5.13009
816.243	30.17684
816.429	13.75175
816.614	21.13641
816.8	11.97326
816.985	19.67378
817.171	9.39504
817.356	18.31983
817.542	11.49462
817.727	29.76375
817.913	6.29975
818.098	20.59269
818.284	9.66157
818.469	20.57638
818.655	10.31974
818.84	29.35066
819.025	1.46843
819.211	23.29487
819.396	25.24114
819.581	18.10776
819.767	13.07191
819.952	29.20934
820.137	16.60689
820.322	33.22043
820.508	32.2476
820.693	29.617
820.878	15.07875
821.063	15.36698
821.248	21.58769
821.433	9.00339
821.618	14.40438
821.804	13.67017
821.989	6.81657
822.174	28.29616
822.359	19.49978
822.544	8.35062
822.729	16.66127
822.914	13.53421
823.099	11.37496
823.284	23.00129
823.469	12.91963
823.653	29.10606
823.838	16.85704
824.023	17.29752
824.208	5.16817
824.393	26.1816
824.578	12.52803
824.762	17.95006
824.947	15.41049
825.132	20.15771
825.317	11.96782
825.501	28.39944
825.686	12.29416
825.871	22.48479
826.056	14.60017
826.24	27.25793
826.425	22.95779
826.609	23.53408
826.794	5.07025
826.979	27.71454
827.163	9.59086
827.348	21.48983
827.532	6.04951
827.717	17.74342
827.901	14.09983
828.086	25.59449
828.27	13.71912
828.455	25.34443
828.639	21.09292
828.823	25.0563
829.008	7.27353
829.192	17.72711
829.376	12.78366
829.561	21.45177
829.745	1.1474
829.929	10.2164
830.114	11.103
830.298	39.2794
830.482	5.90262
830.666	26.52407
830.85	7.15929
831.035	21.28322
831.219	4.68397
831.403	17.11806
831.587	3.50335
831.771	28.20919
831.955	16.99843
832.139	15.60627
832.323	11.43479
832.507	14.69806
832.691	6.07671
832.875	10.12937
833.059	-2.89575
833.243	12.72927
833.427	4.77646
833.611	17.31383
833.795	0.77739
833.979	23.64282
834.163	8.69877
834.346	19.54872
834.53	6.76217
834.714	25.79563
834.898	5.73941
835.082	27.95371
835.265	12.35942
835.449	18.46121
835.633	1.10387
835.816	21.15816
836	1.08211
836.184	29.8779
836.367	18.21107
836.551	23.81679
836.735	16.78635
836.918	5.37491
837.102	14.74701
837.285	15.14945
837.469	9.7486
837.652	24.69206
837.836	3.91685
838.019	15.61171
838.203	12.14186
838.386	11.76113
838.569	3.48703
838.753	36.10065
838.936	10.58083
839.12	14.41526
839.303	18.68959
839.486	21.95741
839.669	-1.87266
839.853	16.96036
840.036	2.80693
840.219	16.94405
840.402	6.29431
840.586	22.21295
840.769	7.01241
840.952	7.58905
841.135	19.13003
841.318	16.68846
841.501	10.7005
841.684	9.66701
841.868	14.92648
842.051	24.73012
842.234	16.04133
842.417	10.55363
842.6	9.53646
842.783	19.30404
842.966	6.54456
843.149	35.68765
843.331	18.89622
843.514	59.75563
843.697	64.64155
843.88	71.64316
844.063	39.2305
844.246	36.06261
844.429	20.40783
844.611	16.30236
844.794	14.52403
844.977	22.0444
845.16	12.58786
845.342	22.89799
845.525	12.88699
845.708	10.62435
845.89	6.06039
846.073	12.58786
846.256	14.53491
846.438	14.65455
846.621	27.77433
846.803	18.10776
846.986	0.22782
847.168	15.94888
847.351	19.05391
847.533	17.56941
847.716	17.77061
847.898	29.74201
848.081	-4.05494
848.263	21.35934
848.446	3.23131
848.628	27.75259
848.81	4.50443
848.993	1.6099
849.175	-4.87674
849.357	16.74828
849.539	13.45807
849.722	13.06648
849.904	5.42387
850.086	18.87447
850.268	16.40568
850.451	26.86654
850.633	9.50383
850.815	12.0494
850.997	21.1636
851.179	22.59896
851.361	3.83524
851.543	17.08544
851.725	16.70478
851.907	22.94148
852.089	16.04133
852.271	20.31539
852.453	25.84999
852.635	32.47587
852.817	3.07353
852.999	17.79236
853.181	-0.76254
853.363	22.1477
853.545	7.16473
853.727	19.1681
853.908	8.69333
854.09	25.53469
854.272	28.36139
854.454	16.48182
854.636	11.74482
854.817	12.40837
854.999	16.90055
855.181	20.9733
855.362	18.42858
855.544	12.7619
855.726	10.14024
855.907	15.26366
856.089	6.01686
856.27	17.11263
856.452	3.07353
856.634	29.82354
856.815	14.28474
856.997	23.90377
857.178	9.16114
857.36	5.82645
857.541	5.20082
857.722	17.66186
857.904	17.89568
858.085	13.60491
858.267	16.32955
858.448	19.20616
858.629	13.55596
858.811	12.0494
858.992	9.53646
859.173	22.88168
859.354	5.02128
859.536	24.83885
859.717	-3.75017
859.898	18.64609
860.079	11.6306
860.26	15.33435
860.441	7.53465
860.623	19.41279
860.804	2.38253
860.985	21.43545
861.166	5.77205
861.347	8.85652
861.528	-0.24559
861.709	24.38219
861.89	-3.21684
862.071	21.43545
862.252	9.12306
862.433	10.83104
862.614	27.10029
862.794	21.09292
862.975	11.95694
863.156	35.87785
863.337	-1.50806
863.518	31.25844
863.699	2.80693
863.879	25.26288
864.06	0.52165
864.241	23.4036
864.422	2.524
864.602	10.61891
864.783	13.37105
864.964	17.18876
865.144	1.13108
865.325	16.34043
865.506	8.7314
865.686	19.14635
865.867	10.31974
866.047	13.3221
866.228	13.57228
866.408	10.93438
866.589	0.63592
866.769	21.91935
866.95	8.14935
867.13	18.3307
867.31	12.12555
867.491	19.76622
867.671	6.70233
867.852	16.71565
868.032	17.46065
868.212	18.29808
868.393	22.86537
868.573	16.28061
868.753	3.92229
868.933	11.48374
869.113	5.84822
869.294	16.79179
869.474	13.49614
869.654	16.06308
869.834	0.83725
870.014	15.68784
870.194	4.53708
870.374	26.19247
870.555	7.8012
870.735	13.4635
870.915	12.16362
871.095	19.57047
871.275	13.42543
871.455	18.6624
871.634	-3.51615
871.814	23.15352
871.994	9.52015
872.174	21.8378
872.354	26.75238
872.534	14.50228
872.714	9.73773
872.894	11.55445
873.073	8.7314
873.253	31.00299
873.433	-2.81956
873.613	14.82315
873.792	13.61035
873.972	21.04398
874.152	-0.89858
874.331	25.39335
874.511	26.27945
874.691	8.18199
874.87	4.0039
875.05	24.36588
875.229	1.55549
875.409	23.48515
875.588	0.8699
875.768	19.49435
875.947	21.47895
876.127	27.65474
876.306	8.85652
876.486	17.31927
876.665	10.71137
876.844	17.08544
877.024	14.80683
877.203	21.8976
877.382	2.76884
877.562	6.97977
877.741	0.79372
877.92	20.72863
878.1	8.29623
878.279	15.12226
878.458	7.96984
878.637	18.58084
878.816	15.61715
878.996	13.32754
879.175	5.50548
879.354	17.82499
879.533	13.6321
879.712	16.71565
879.891	5.66869
880.07	15.51382
880.249	9.12306
880.428	14.39895
880.607	15.88906
880.786	8.83476
880.965	22.72945
881.144	26.30119
881.323	3.15514
881.502	10.1348
881.68	13.20788
881.859	3.52512
882.038	13.8714
882.217	16.04677
882.396	-3.22228
882.574	14.80683
882.753	12.07116
882.932	18.82553
883.111	18.15126
883.289	22.78925
883.468	8.18743
883.647	21.73449
883.825	10.85823
884.004	24.20278
884.182	3.63937
884.361	14.06719
884.539	0.69577
884.718	20.35345
884.896	2.82325
885.075	15.02437
885.253	13.49614
885.432	13.75175
885.61	-5.50263
885.789	19.65203
885.967	-0.57209
886.145	25.42597
886.324	10.74945
886.502	16.28061
886.68	8.64981
886.859	10.50468
887.037	17.52047
887.215	20.49482
887.393	18.42314
887.572	8.91635
887.75	7.68696
887.928	15.56276
888.106	11.70674
888.284	26.76326
888.462	11.02141
888.64	15.60627
888.819	7.75768
888.997	17.07456
889.175	5.75573
889.353	9.98794
889.531	7.49657
889.709	7.59993
889.887	3.08985
890.065	27.54059
890.242	12.21801
890.42	19.58678
890.598	10.1892
890.776	26.42622
890.954	11.21178
891.132	8.74772
891.309	8.02968
891.487	15.88362
891.665	9.55278
891.843	14.39895
892.02	-2.0468
892.198	22.2945
892.376	6.96889
892.553	18.51015
892.731	13.11542
892.909	18.96691
893.086	13.23508
893.264	16.422
893.441	5.51636
893.619	10.06953
893.797	11.90255
893.974	17.72167
894.151	9.93899
894.329	12.57698
894.506	4.66765
894.684	18.39595
894.861	9.61806
895.039	21.08748
895.216	7.98072
895.393	14.33912
895.571	-12.01825
895.748	13.72456
895.925	16.3513
896.102	21.33759
896.28	8.48662
896.457	10.51556
896.634	6.3324
896.811	11.7285
896.988	1.28343
897.166	8.99795
897.343	-0.12044
897.52	23.50146
897.697	-2.77603
897.874	25.25744
898.051	14.88841
898.228	12.22345
898.405	4.85807
898.582	8.29079
898.759	0.96784
898.936	23.63194
899.113	8.87284
899.29	24.85516
899.467	9.47663
899.643	22.23469
899.82	11.86991
899.997	19.76622
900.174	-6.92864
900.351	20.29908
900.527	15.66609
900.704	19.86409
900.881	21.19078
901.058	9.93899
901.234	12.1473
901.411	21.55507
901.588	8.81844
901.764	26.00764
901.941	18.49927
902.117	21.14185
902.294	5.47827
902.471	17.52047
902.647	-1.3448
902.824	20.11421
903	4.49899
903.176	10.3143
903.353	12.63681
903.529	11.5762
903.706	15.02981
903.882	13.8986
904.058	6.28887
904.235	5.79381
904.411	5.21714
904.587	22.90886
904.764	8.26359
904.94	16.87336
905.116	7.11033
905.292	10.81472
905.469	7.11033
905.645	14.19228
905.821	10.81472
905.997	7.73592
906.173	0.32032
906.349	12.99577
906.525	-0.35442
906.702	9.88459
906.878	-4.46856
907.054	18.29808
907.23	9.66701
907.406	15.61715
907.582	13.02296
907.757	6.53912
907.933	10.18376
908.109	20.92436
908.285	1.9799
908.461	18.76028
908.637	0.12987
908.813	19.60853
908.988	8.17111
909.164	16.97124
909.34	15.93256
909.516	15.36698
909.691	4.38474
909.867	28.41575
910.043	6.93081
910.219	22.56634
910.394	11.80465
910.57	16.25342
910.745	20.66338
910.921	16.98212
911.097	-9.54681
911.272	7.8556
911.448	20.57638
911.623	12.31591
911.799	-2.19917
911.974	7.49657
912.149	8.00248
912.325	17.69992
912.5	3.51424
912.676	13.48526
912.851	4.34666
913.026	22.26188
913.202	-3.05901
913.377	15.76942
913.552	0.76107
913.727	28.07873
913.903	15.59539
914.078	9.86283
914.253	9.00883
914.428	23.11002
914.603	-6.46599
914.779	10.62978
914.954	7.95896
915.129	22.07158
915.304	11.0758
915.479	18.41227
915.654	5.33683
915.829	20.67425
916.004	-4.3325
916.179	17.83587
916.354	5.37491
916.529	18.7929
916.704	5.29874
916.879	14.02368
917.053	15.60083
917.228	11.8264
917.403	6.81113
917.578	27.14377
917.753	8.97075
917.927	6.23991
918.102	-0.43605
918.277	4.76014
918.452	4.3249
918.626	10.70593
918.801	5.22802
918.976	14.8449
919.15	13.56684
919.325	22.69139
919.499	12.60961
919.674	16.422
919.849	12.22345
920.023	16.05764
920.198	11.12476
920.372	15.89993
920.547	8.17655
920.721	16.29692
920.895	10.98334
921.07	14.48052
921.244	6.34872
921.419	18.93972
921.593	8.55733
921.767	19.71728
921.942	2.17578
922.116	3.2966
922.29	3.38366
922.464	18.54821
922.639	-4.10392
922.813	11.3532
922.987	16.27517
923.161	7.05593
923.335	-1.45364
923.509	12.75646
923.683	6.87097
923.858	19.40191
924.032	13.64298
924.206	22.71314
924.38	-0.09867
924.554	19.84234
924.728	10.35782
924.902	27.37752
925.075	14.69806
925.249	10.45573
925.423	8.17655
925.597	19.78253
925.771	2.30092
925.945	14.9156
926.119	18.40139
926.292	13.82789
926.466	7.65977
926.64	16.81898
926.814	12.96858
926.987	7.7196
927.161	6.16919
927.335	11.86447
927.508	20.67425
927.682	3.0028
927.856	7.12121
928.029	20.15771
928.203	8.06775
928.376	11.35864
928.55	-5.65503
928.723	4.99952
928.897	5.76117
929.07	14.1814
929.244	9.25905
929.417	2.03431
929.59	4.05831
929.764	11.87535
929.937	5.47283
930.111	11.36952
930.284	-7.16268
930.457	9.57454
930.63	-0.70269
930.804	18.80378
930.977	9.02515
931.15	12.03852
931.323	15.57364
931.497	10.84192
931.67	9.40048
931.843	25.33899
932.016	2.47503
932.189	14.43701
932.362	10.81472
932.535	17.44978
932.708	5.77205
932.881	9.55822
933.054	6.0223
933.227	16.65583
933.4	-2.35699
933.573	17.15613
933.746	3.00824
933.919	21.99003
934.092	-4.08759
934.264	18.73853
934.437	-4.30529
934.61	4.46635
934.783	6.62616
934.956	14.29017
935.128	11.7285
935.301	16.03589
935.474	1.62079
935.646	5.15185
935.819	5.59252
935.992	11.77745
936.164	3.0028
936.337	3.43806
936.51	-0.10411
936.682	10.29799
936.855	4.71661
937.027	28.3179
937.2	5.36947
937.372	9.73229
937.545	4.37386
937.717	22.20207
937.889	5.92982
938.062	15.58995
938.234	5.08657
938.406	12.88699
938.579	12.53347
938.751	20.1849
938.923	13.70824
939.096	15.4975
939.268	11.46198
939.44	17.36277
939.612	8.42134
939.784	17.81955
939.957	5.69589
940.129	11.41847
940.301	10.5482
940.473	23.87659
940.645	6.91993
940.817	23.5667
940.989	1.02769
941.161	11.32057
941.333	9.40048
941.505	6.98521
941.677	5.24978
941.849	15.94344
942.021	9.17201
942.193	4.65677
942.365	0.44547
942.537	18.73309
942.708	7.37689
942.88	19.82059
943.052	2.25739
943.224	8.55189
943.395	0.64136
943.567	14.24123
943.739	3.12794
943.911	11.55445
944.082	5.08113
944.254	31.43236
944.425	-1.43187
944.597	17.15069
944.769	13.71368
944.94	22.59353
945.112	18.45577
945.283	22.98498
945.455	-0.29457
945.626	16.65583
945.798	16.07396
945.969	16.2371
946.14	8.06231
946.312	15.38874
946.483	5.18449
946.655	13.79526
946.826	9.69421
946.997	21.48439
947.168	-12.82397
947.34	13.33841
947.511	7.55097
947.682	10.9507
947.853	11.71762
948.025	15.14401
948.196	-0.49046
948.367	17.04737
948.538	6.97977
948.709	17.17788
948.88	0.47268
949.051	12.45732
949.222	-0.52311
949.393	18.61346
949.564	9.52015
949.735	14.17597
949.906	-5.02369
950.077	13.15893
950.248	10.20008
950.419	3.96581
950.59	-3.08078
950.761	6.49016
950.931	11.63603
951.102	19.63572
951.273	2.8559
951.444	18.51015
951.614	12.10923
951.785	15.38874
951.956	1.71328
952.126	23.51234
952.297	23.32205
952.468	5.32594
952.638	-0.86593
952.809	13.67017
952.98	2.07784
953.15	16.6504
953.321	0.69577
953.491	8.8402
953.662	8.81844
953.832	5.03216
954.002	0.41282
954.173	4.2052
954.343	1.28887
954.514	9.90635
954.684	0.77195
954.854	12.93594
955.025	5.30418
955.195	15.64434
955.365	1.68608
955.535	10.08585
955.706	15.47575
955.876	20.50026
956.046	6.28887
956.216	28.0135
956.386	-1.6441
956.557	15.93256
956.727	1.89284
956.897	15.62258
957.067	6.97977
957.237	13.45263
957.407	9.75404
957.577	16.82441
957.747	0.23326
957.917	5.28786
958.087	-8.22408
958.257	17.22682
958.427	4.34666
958.596	9.52015
958.766	5.30962
958.936	8.34518
959.106	10.06953
959.276	11.77201
959.445	-6.48232
959.615	16.71021
959.785	10.41765
959.955	23.77329
960.124	8.18743
960.294	6.4956
960.464	-2.24815
960.633	4.47179
960.803	0.76651
960.972	17.78693
961.142	-2.69984
961.311	15.50294
961.481	-2.19373
961.65	13.12086
961.82	7.49113
961.989	30.76928
962.159	6.73497
962.328	24.355
962.498	9.43311
962.667	3.47615
962.836	2.8831
963.006	15.64434
963.175	8.79124
963.344	16.87336
963.513	-4.80599
963.683	2.13769
963.852	1.24534
964.021	1.15284
964.19	0.72298
964.359	16.20991
964.528	7.26265
964.698	7.40953
964.867	-1.04551
965.036	10.91807
965.205	17.05825
965.374	8.95443
965.543	10.14024
965.712	14.66543
965.881	11.71218
966.05	14.77964
966.219	6.07671
966.387	14.41526
966.556	9.26993
966.725	12.14186
966.894	4.92335
967.063	10.23815
967.232	7.19737
967.4	8.53013
967.569	-2.68351
967.738	24.94214
967.906	-1.45908
968.075	20.94611
968.244	-1.05639
968.412	16.0087
968.581	16.38393
968.75	6.93625
968.918	5.96246
969.087	11.69043
969.255	10.15112
969.424	19.47803
969.592	12.22889
969.761	15.57908
969.929	3.38366
970.098	22.17489
970.266	-8.31117
970.434	8.27991
970.603	8.10039
970.771	18.73309
970.939	5.54356
971.108	27.40469
971.276	-2.62365
971.444	11.40759
971.612	-5.69857
971.781	6.686
971.949	27.25793
972.117	12.38118
972.285	10.74401
972.453	5.82101
972.621	-2.15564
972.789	10.60259
972.957	9.42223
973.125	9.91723
973.293	4.65677
973.461	11.19546
973.629	22.93605
973.797	18.32526
973.965	8.68245
974.133	19.67378
974.301	9.63438
974.469	4.68941
974.637	2.23019
974.805	17.46065
974.972	6.68056
975.14	18.18932
975.308	11.91343
975.476	5.2389
975.643	4.21064
975.811	8.29079
975.979	19.20072
976.146	18.52646
976.314	19.0376
976.482	8.28535
976.649	1.86019
976.817	18.3742
976.984	4.63501
977.152	8.51926
977.319	9.05234
977.487	14.6328
977.654	9.04146
977.822	8.68789
977.989	0.20061
978.156	8.48662
978.324	4.72206
978.491	9.02515
978.658	-5.40467
978.826	7.59449
978.993	5.52724
979.16	12.54435
979.328	2.79061
979.495	11.05405
979.662	-0.75166
979.829	10.48292
979.996	7.21913
980.163	16.40568
980.33	-0.2728
980.498	9.99882
980.665	9.77036
980.832	9.76492
980.999	-3.63588
981.166	12.75646
981.333	10.12393
981.5	15.30172
981.667	33.36716
981.833	5.87542
982	7.12665
982.167	7.03961
982.334	1.65343
982.501	12.4682
982.668	1.10387
982.834	6.86553
983.001	12.13643
983.168	17.29752
983.335	2.69267
983.501	20.87543
983.668	3.04089
983.835	10.90719
984.001	8.32342
984.168	5.29874
984.334	4.70029
984.501	14.48596
984.668	5.87542
984.834	9.28081
985.001	-3.56513
985.167	23.16983
985.334	-6.22651
985.5	7.34969
985.666	-6.03057
985.833	-0.7571
985.999	-3.54337
986.165	15.30172
986.332	9.08498
986.498	11.11388
986.664	7.61625
986.831	8.99251
986.997	-1.01286
987.163	10.46117
987.329	-7.42395
987.495	-7.87572
987.662	5.59796
987.828	4.10727
987.994	8.4431
988.16	18.99409
988.326	6.84377
988.492	9.98794
988.658	11.61428
988.824	13.86597
988.99	0.32032
989.156	4.87439
989.322	14.94823
989.488	11.83728
989.654	-1.11625
989.82	11.71762
989.985	4.39562
990.151	17.54766
990.317	10.50468
990.483	3.65569
990.648	6.95801
990.814	6.26711
990.98	0.49989
991.146	20.70688
991.311	9.15026
991.477	20.33714
991.643	-2.3189
991.808	3.9767
991.974	-2.35155
992.139	18.38508
992.305	5.48916
992.47	3.28028
992.636	7.46393
992.801	13.42543
992.967	8.22007
993.132	8.3887
993.298	24.30064
993.463	9.22641
993.628	1.37593
993.794	12.53891
993.959	15.05156
994.124	5.04848
994.29	3.76451
994.455	19.54872
994.62	1.7677
994.785	12.25064
994.95	-2.36787
995.116	17.98269
995.281	7.52377
995.446	10.03146
995.611	-3.09167
995.776	11.27161
995.941	10.36326
996.106	16.91686
996.271	2.29548
996.436	26.99157
996.601	14.56754
996.766	5.43475
996.931	3.28028
997.096	10.12937
997.261	3.86788
997.425	21.46264
997.59	3.94405
997.755	10.35782
997.92	8.04056
998.085	16.3078
998.249	6.72409
998.414	8.60085
998.579	-2.84677
998.744	7.43129
998.908	1.15828
999.073	17.72167
999.237	10.72769
999.402	14.52947
999.567	4.54252
999.731	11.81552
999.896	-8.39826
1000.06	24.78448
1000.225	3.47071
1000.389	16.13921
1000.553	10.41765
1000.718	19.00497
1000.882	-10.43955
1001.047	13.78982
1001.211	0.95696
1001.375	24.07774
1001.54	9.52559
1001.704	5.2389
1001.868	15.36155
1002.032	20.1414
1002.197	6.34872
1002.361	2.34989
1002.525	2.63826
1002.689	6.44664
1002.853	4.17256
1003.017	11.43479
1003.181	5.97334
1003.345	10.06409
1003.509	6.75129
1003.673	9.5963
1003.837	9.62894
1004.001	11.10844
1004.165	0.47812
1004.329	13.94211
1004.493	2.92119
1004.657	15.54101
1004.821	-1.14346
1004.985	13.67561
1005.149	4.21608
1005.312	10.22727
1005.476	0.03192
1005.64	27.82869
1005.804	-0.64283
1005.967	13.58316
1006.131	2.50224
1006.295	16.09027
1006.458	5.44563
1006.622	10.55363
1006.785	2.62738
1006.949	19.18985
1007.113	7.21913
1007.276	11.94606
1007.44	8.45398
1007.603	9.18289
1007.767	6.29431
1007.93	8.74228
1008.093	10.21096
1008.257	14.36088
1008.42	-3.55425
1008.584	12.664
1008.747	0.42915
1008.91	12.88156
1009.073	-1.43731
1009.237	12.05484
1009.4	3.87876
1009.563	1.35417
1009.726	1.55005
1009.889	26.573
1010.053	-1.30671
1010.216	17.8413
1010.379	15.7531
1010.542	26.74151
1010.705	9.79756
1010.868	19.11372
1011.031	7.34425
1011.194	9.32432
1011.357	11.67955
1011.52	12.64768
1011.683	-1.88354
1011.846	8.63893
1012.009	3.15514
1012.171	9.7758
1012.334	12.97402
1012.497	17.47697
1012.66	-2.28625
1012.823	10.37958
1012.985	15.69328
1013.148	9.34064
1013.311	5.39123
1013.473	17.13438
1013.636	-4.35971
1013.799	14.78508
1013.961	12.60417
1014.124	19.77166
1014.286	8.06775
1014.449	6.14199
1014.612	8.24727
1014.774	12.89787
1014.936	1.2127
1015.099	6.6044
1015.261	-8.18054
1015.424	12.47908
1015.586	4.94512
1015.748	3.90597
1015.911	-4.68625
1016.073	26.36643
1016.235	11.15739
1016.398	19.22791
1016.56	19.3856
1016.722	0.94063
1016.884	1.84931
1017.047	22.73488
1017.209	8.72052
1017.371	4.56972
1017.533	3.19323
1017.695	15.98151
1017.857	10.41765
1018.019	13.14262
1018.181	8.40502
1018.343	12.90331
1018.505	3.13338
1018.667	6.52824
1018.829	1.74593
1018.991	13.58316
1019.153	7.23545
1019.315	7.17561
1019.477	3.75907
1019.638	9.57454
1019.8	-7.04294
1019.962	12.4954
1020.124	-2.67263
1020.285	14.69262
1020.447	1.83299
1020.609	13.3928
1020.77	-0.02249
1020.932	26.41535
1021.094	-9.53592
1021.255	18.04794
1021.417	16.91686
1021.578	-0.91491
1021.74	6.97977
1021.901	16.7646
1022.063	4.23241
1022.224	15.7531
1022.386	3.78083
1022.547	17.24858
1022.709	-0.72989
1022.87	20.00003
1023.031	5.95158
1023.193	10.46117
1023.354	5.09201
1023.515	12.58786
1023.676	7.44217
1023.838	7.75224
1023.999	6.3324
1024.16	11.86447
1024.321	17.07456
1024.482	18.12951
1024.644	11.01053
1024.805	19.73903
1024.966	4.06375
1025.127	4.41739
1025.288	2.11592
1025.449	28.18745
1025.61	3.77539
1025.771	22.33799
1025.932	12.91419
1026.093	20.21752
1026.253	4.66765
1026.414	2.25195
1026.575	3.04633
1026.736	7.13209
1026.897	5.64692
1027.058	12.664
1027.218	4.42283
1027.379	9.69965
1027.54	8.48662
1027.7	12.16362
1027.861	4.43371
1028.022	9.54734
1028.182	3.27484
1028.343	14.99718
1028.504	-2.50392
1028.664	15.42681
1028.825	0.46724
1028.985	10.95614
1029.146	-0.59385
1029.306	6.02774
1029.466	7.03961
1029.627	21.46808
1029.787	4.69485
1029.948	-0.26736
1030.108	1.63711
1030.268	19.76622
1030.429	2.82869
1030.589	8.92179
1030.749	3.02456
1030.909	11.8264
1031.07	8.813
1031.23	15.36155
1031.39	1.18549
1031.55	13.75719
1031.71	-10.93492
1031.87	-0.63739
1032.03	13.21876
1032.19	11.40759
1032.35	9.13394
1032.51	13.59403
1032.67	-6.18841
1032.83	13.46894
1032.99	3.07353
1033.15	23.14808
1033.31	8.06775
1033.47	6.05495
1033.63	16.11746
1033.79	10.79296
1033.949	-5.82919
1034.109	20.41326
1034.269	-3.51615
1034.429	21.90848
1034.588	6.60984
1034.748	7.86648
1034.908	9.02515
1035.067	10.5482
1035.227	2.60017
1035.387	12.88699
1035.546	15.37786
1035.706	2.92119
1035.865	5.69589
1036.025	17.31927
1036.184	-3.04813
1036.344	15.55189
1036.503	10.60259
1036.662	5.59796
1036.822	5.92438
1036.981	13.16437
1037.14	4.43915
1037.3	8.08951
1037.459	-0.33266
1037.618	14.45333
1037.778	8.42678
1037.937	16.79722
1038.096	0.91887
1038.255	12.5661
1038.414	0.63048
1038.573	23.94727
1038.733	0.58695
1038.892	21.9411
1039.051	7.33881
1039.21	21.06029
1039.369	-1.91075
1039.528	18.41771
1039.687	0.49989
1039.846	16.1936
1040.005	5.97334
1040.164	18.94516
1040.322	7.01785
1040.481	19.77166
1040.64	4.43371
1040.799	7.48569
1040.958	6.29431
1041.116	13.87684
1041.275	-0.40884
1041.434	12.74558
1041.593	-7.83762
1041.751	13.3928
1041.91	8.62805
1042.069	8.11127
1042.227	7.81752
1042.386	19.3856
1042.544	-0.8224
1042.703	17.00387
1042.861	0.6196
1043.02	8.15479
1043.178	-0.24559
1043.337	20.0979
1043.495	5.14097
1043.653	7.77944
1043.812	-0.91491
1043.97	19.17897
1044.129	-0.80608
1044.287	12.19082
1044.445	4.78734
1044.603	3.47071
1044.762	-4.04405
1044.92	23.56127
1045.078	6.94169
1045.236	12.77822
1045.394	0.79372
1045.552	23.16439
