Data from deut_4ms_1000_SR4014911__0__14-41-32-377.txt Node

Date: Thu Jul 10 14:41:32 EDT 2025
User: cryst
Spectrometer: SR401491
Trigger mode: 0
Integration Time (sec): 4.000000E-3
Scans to average: 1000
Electric dark correction enabled: true
Nonlinearity correction enabled: true
Boxcar width: 0
XAxis mode: Wavelengths
Number of Pixels in Spectrum: 3648
>>>>>Begin Spectral Data<<<<<
344.912	-14.66073
345.129	-2.0423
345.347	-10.83352
345.565	-0.28027
345.783	-1.03013
346.001	4.59707
346.219	-5.01701
346.437	5.02251
346.654	-0.28136
346.872	7.93843
347.09	0.31829
347.308	10.13713
347.526	-0.13118
347.743	6.37171
347.961	-0.12029
348.179	8.71958
348.397	-2.88581
348.614	13.78236
348.832	10.1306
349.05	19.77833
349.268	10.47545
349.485	20.6135
349.703	7.61095
349.921	23.6821
350.138	10.93562
350.356	22.95141
350.574	10.48524
350.791	21.69332
351.009	14.18916
351.227	18.5266
351.444	9.83904
351.662	18.94639
351.879	7.58702
352.097	20.35142
352.314	11.30222
352.532	17.15193
352.75	12.24644
352.967	22.49037
353.185	12.35304
353.402	22.04998
353.62	9.75637
353.837	23.00252
354.055	8.70979
354.272	20.99411
354.49	14.50133
354.707	23.82781
354.925	12.51512
355.142	19.53908
355.359	12.31606
355.577	23.40484
355.794	11.50564
356.012	19.49014
356.229	14.06408
356.446	21.7553
356.664	9.45393
356.881	21.48997
357.099	11.96905
357.316	20.75052
357.533	11.04658
357.751	17.8719
357.968	17.89583
358.185	20.44277
358.402	12.73812
358.62	20.66026
358.837	13.85741
359.054	19.99039
359.272	11.36205
359.489	18.38414
359.706	10.6419
359.923	23.53749
360.141	12.15398
360.358	22.05759
360.575	10.76918
360.792	18.43308
361.009	11.05854
361.226	20.50149
361.444	14.15762
361.661	19.98495
361.878	11.55133
362.095	18.11225
362.312	15.37148
362.529	21.88905
362.746	10.90733
362.963	22.44035
363.181	9.15693
363.398	22.88508
363.615	15.52919
363.832	19.128
364.049	10.57336
364.266	25.63813
364.483	12.30735
364.7	21.30511
364.917	8.30399
365.134	22.30226
365.351	12.85016
365.568	20.68201
365.785	11.36422
366.002	21.46931
366.219	11.43493
366.436	20.33402
366.652	10.23286
366.869	21.71506
367.086	13.66923
367.303	17.46515
367.52	15.34429
367.737	22.97316
367.954	14.75259
368.171	19.69677
368.387	16.28184
368.604	24.2997
368.821	11.78739
369.038	17.74901
369.255	15.72279
369.471	23.88543
369.688	15.28338
369.905	20.46017
370.122	12.81752
370.339	18.2917
370.555	12.41396
370.772	19.14649
370.989	16.62661
371.205	19.96537
371.422	11.97122
371.639	19.93601
371.855	12.92195
372.072	21.93146
372.289	11.83307
372.505	23.1678
372.722	11.19126
372.939	16.82782
373.155	14.70691
373.372	22.99708
373.589	17.18455
373.805	19.53473
374.022	11.35117
374.238	19.58258
374.455	16.88981
374.671	21.84881
374.888	13.91288
375.104	17.65547
375.321	11.07377
375.537	23.12756
375.754	15.75325
375.97	22.37076
376.187	16.98009
376.403	18.2743
376.62	11.18582
376.836	22.39468
377.053	13.05139
377.269	20.65047
377.486	9.88691
377.702	15.02886
377.918	8.51831
378.135	23.79736
378.351	11.36531
378.568	21.09197
378.784	14.20765
379	22.45993
379.217	10.33947
379.433	17.59348
379.649	13.85523
379.865	20.51346
380.082	14.91357
380.298	21.41603
380.514	14.18481
380.731	22.19569
380.947	7.12788
381.163	21.64982
381.379	10.25135
381.596	19.041
381.812	16.88764
382.028	24.9064
382.244	11.25653
382.46	16.39169
382.676	18.0383
382.893	21.28336
383.109	11.05093
383.325	19.39662
383.541	11.05637
383.757	21.16701
383.973	12.53035
384.189	26.62098
384.405	11.80914
384.622	22.76656
384.838	15.88703
385.054	20.70485
385.27	15.30622
385.486	21.52151
385.702	16.24051
385.918	22.35227
386.134	14.36755
386.35	22.44796
386.566	12.16159
386.782	25.85558
386.998	18.09267
387.214	24.017
387.43	15.92183
387.646	25.04014
387.861	19.04753
388.077	25.3076
388.293	17.20739
388.509	26.29264
388.725	14.22614
388.941	21.23334
389.157	15.54986
389.373	22.47732
389.588	14.09779
389.804	22.47732
390.02	13.9292
390.236	19.51624
390.452	12.47487
390.668	25.42938
390.883	18.95618
391.099	22.65783
391.315	17.76314
391.531	20.37426
391.746	16.30359
391.962	27.87558
392.178	15.81198
392.393	26.41223
392.609	17.61741
392.825	24.42039
393.041	14.7167
393.256	28.49525
393.472	16.54504
393.687	23.07972
393.903	14.17829
394.119	27.77665
394.334	13.41796
394.55	30.8466
394.766	15.92945
394.981	26.78406
395.197	16.74299
395.412	30.13567
395.628	22.73068
395.843	27.62662
396.059	23.97024
396.274	31.80317
396.49	20.25573
396.705	23.85173
396.921	15.17461
397.136	23.76365
397.352	15.81742
397.567	23.81041
397.783	18.61252
397.998	26.75905
398.214	17.44884
398.429	24.80964
398.644	17.662
398.86	25.87406
399.075	19.37269
399.29	28.29304
399.506	18.08506
399.721	27.36679
399.936	12.76857
400.152	24.05179
400.367	15.34864
400.582	24.62588
400.798	15.85984
401.013	19.35421
401.228	16.8909
401.444	24.39212
401.659	14.75477
401.874	26.38723
402.089	19.42489
402.304	24.20401
402.52	17.84797
402.735	27.36244
402.95	14.96578
403.165	27.65706
403.38	18.26777
403.596	28.04083
403.811	15.59554
404.026	26.67969
404.241	13.16669
404.456	26.91561
404.671	18.34281
404.886	26.96997
405.101	15.4487
405.316	32.81623
405.532	16.84196
405.747	28.57678
405.962	19.7457
406.177	26.36331
406.392	17.01054
406.607	28.45068
406.822	21.16157
407.037	32.1434
407.252	25.86862
407.467	37.75488
407.682	26.82972
407.896	42.78714
408.111	31.92274
408.326	41.44305
408.541	34.90309
408.756	52.57078
408.971	42.27429
409.186	52.23842
409.401	36.55725
409.616	33.08362
409.83	20.87992
410.045	24.3932
410.26	15.23987
410.475	23.82563
410.69	16.24595
410.905	28.47133
411.119	11.8037
411.334	22.72089
411.549	14.24681
411.764	22.82963
411.978	17.35313
412.193	26.92431
412.408	18.83002
412.623	22.62738
412.837	22.39468
413.052	24.11703
413.267	17.78707
413.481	26.67208
413.696	16.69731
413.911	23.50813
414.125	17.32811
414.34	21.90645
414.554	15.105
414.769	26.83081
414.984	17.08776
415.198	22.04563
415.413	15.62273
415.627	23.77453
415.842	13.86393
416.056	26.29264
416.271	16.10347
416.485	26.40136
416.7	15.68799
416.914	22.6774
417.129	13.78562
417.343	26.82211
417.558	17.37814
417.772	26.19262
417.987	13.65835
418.201	21.09306
418.415	16.86806
418.63	23.6484
418.844	14.19243
419.059	27.51899
419.273	16.47652
419.487	27.90276
419.702	16.65272
419.916	26.4155
420.13	18.51247
420.345	29.62693
420.559	19.43033
420.773	24.32905
420.988	15.79893
421.202	27.6538
421.416	19.66414
421.63	26.60684
421.845	19.16715
422.059	25.46308
422.273	17.16389
422.487	29.33993
422.701	21.92058
422.916	29.36711
423.13	17.5391
423.344	26.40027
423.558	15.92836
423.772	22.30008
423.986	17.07036
424.201	23.7593
424.415	19.69568
424.629	28.7866
424.843	13.1221
425.057	28.36806
425.271	12.51621
425.485	27.4929
425.699	16.51568
425.913	27.99734
426.127	19.23458
426.341	26.95475
426.555	16.8561
426.769	31.00748
426.983	20.78532
427.197	24.69656
427.411	13.51477
427.625	28.33001
427.839	18.46788
428.053	26.08933
428.267	16.06975
428.481	28.91705
428.695	15.22573
428.908	25.78273
429.122	18.7539
429.336	28.20933
429.55	20.0937
429.764	31.93252
429.978	25.76533
430.191	37.84073
430.405	37.49514
430.619	45.58919
430.833	50.24849
431.047	66.42972
431.26	75.85534
431.474	97.62026
431.688	102.0863
431.901	109.31237
432.115	123.54539
432.329	142.07897
432.543	142.02484
432.756	166.36802
432.97	171.3377
433.184	135.66716
433.397	60.84053
433.611	35.39327
433.824	22.82528
434.038	26.79167
434.252	17.33464
434.465	27.92559
434.679	18.4309
434.892	28.26152
435.106	14.82112
435.319	22.53822
435.533	18.8235
435.747	27.69403
435.96	17.1106
436.174	28.542
436.387	15.52484
436.601	25.5294
436.814	20.95387
437.027	23.69733
437.241	15.62382
437.454	24.10072
437.668	19.78376
437.881	27.39832
438.095	19.08124
438.308	29.6204
438.521	21.33229
438.735	25.72619
438.948	16.71362
439.161	25.03144
439.375	16.19265
439.588	30.41831
439.801	18.72888
440.015	24.98577
440.228	22.03911
440.441	38.71989
440.654	27.4168
440.868	30.64224
441.081	18.22971
441.294	27.7473
441.507	21.61176
441.721	28.13867
441.934	21.13547
442.147	29.37581
442.36	20.85165
442.573	27.9582
442.786	16.83978
443	29.83564
443.213	20.01213
443.426	29.57366
443.639	24.53999
443.852	32.33471
444.065	21.86295
444.278	30.41613
444.491	23.87021
444.704	28.89531
444.917	20.16112
445.13	31.3912
445.343	19.33463
445.556	33.65534
445.769	22.78505
445.982	31.29989
446.195	27.04933
446.408	31.83578
446.621	24.1366
446.834	28.19738
447.047	21.29532
447.26	30.2596
447.473	23.6397
447.686	31.07162
447.899	22.18808
448.111	31.38468
448.324	24.77702
448.537	29.2084
448.75	22.52299
448.963	29.92261
449.176	20.2927
449.388	29.4943
449.601	20.95278
449.814	28.06257
450.027	20.37861
450.239	26.38505
450.452	20.8386
450.665	28.22021
450.878	18.45048
451.09	25.59246
451.303	21.37579
451.516	28.47242
451.728	19.77941
451.941	26.87321
452.154	23.57663
452.366	33.68904
452.579	18.83329
452.792	30.49658
453.004	22.71111
453.217	30.80095
453.429	16.5222
453.642	28.15172
453.854	19.89686
454.067	30.41613
454.28	22.25332
454.492	27.71577
454.705	15.82721
454.917	28.83226
455.13	24.01156
455.342	29.67911
455.555	15.4052
455.767	30.85421
455.979	19.30744
456.192	31.01074
456.404	20.16221
456.617	28.25608
456.829	19.1802
457.041	33.12275
457.254	25.50331
457.466	31.61404
457.679	24.78028
457.891	29.61932
458.103	22.79918
458.315	29.50952
458.528	21.40298
458.74	31.62273
458.952	20.7005
459.165	28.63332
459.377	19.96972
459.589	24.70634
459.801	18.66146
460.014	30.83138
460.226	17.93933
460.438	27.46572
460.65	17.92845
460.862	28.28326
461.075	17.47059
461.287	24.78354
461.499	15.50091
461.711	26.32743
461.923	16.06214
462.135	25.48809
462.347	17.74792
462.559	28.72681
462.771	22.37294
462.983	27.15261
463.196	19.42272
463.408	29.55518
463.62	23.1417
463.832	31.8597
464.044	24.27578
464.256	31.79122
464.468	19.1628
464.68	30.15524
464.891	24.58457
465.103	32.47492
465.315	24.97055
465.527	26.76123
465.739	16.88764
465.951	29.41494
466.163	18.98989
466.375	26.35679
466.587	17.7936
466.799	26.67534
467.01	14.70473
467.222	29.35733
467.434	18.90724
467.646	25.77947
467.858	16.83108
468.069	26.65468
468.281	13.78562
468.493	23.67558
468.705	15.14524
468.916	22.63825
469.128	10.78984
469.34	24.62371
469.551	16.41018
469.763	19.82835
469.975	14.34144
470.186	26.29699
470.398	15.18114
470.61	26.61772
470.821	15.01799
471.033	26.36875
471.245	18.88223
471.456	23.11343
471.668	14.62316
471.879	22.24462
472.091	19.95124
472.302	26.77645
472.514	22.79592
472.725	24.24751
472.937	14.67972
473.148	24.10181
473.36	16.67991
473.571	27.85493
473.783	12.41613
473.994	23.90718
474.206	17.87408
474.417	24.33884
474.629	17.45101
474.84	28.7018
475.051	16.56788
475.263	24.09311
475.474	17.95129
475.685	24.78028
475.897	18.01546
476.108	32.09992
476.319	16.18395
476.531	29.45408
476.742	17.3292
476.953	29.37472
477.165	22.40773
477.376	26.59706
477.587	21.74007
477.798	22.9525
478.01	14.3893
478.221	29.18339
478.432	17.73813
478.643	27.59836
478.854	16.86697
479.065	30.27699
479.277	24.33884
479.488	32.80862
479.699	23.52118
479.91	30.10632
480.121	21.72268
480.332	31.58143
480.543	18.42981
480.754	28.66375
480.965	19.61738
481.176	33.01514
481.387	24.27143
481.598	30.33678
481.809	29.21709
482.02	44.39083
482.231	77.60681
482.442	148.45358
482.653	248.88496
482.864	380.92043
483.075	541.37654
483.286	747.22024
483.497	964.69534
483.708	1136.35579
483.919	1277.45821
484.13	1410.75846
484.341	1583.53749
484.551	1829.61925
484.762	2015.84274
484.973	2082.01766
485.184	1501.22595
485.395	563.24236
485.605	190.85421
485.816	103.75802
486.027	53.91431
486.238	48.09765
486.449	37.12564
486.659	42.74803
486.87	28.56917
487.081	36.87786
487.291	26.12738
487.502	34.60638
487.713	20.99845
487.923	30.53897
488.134	23.16345
488.345	34.91614
488.555	24.03222
488.766	33.16623
488.976	25.28151
489.187	35.90734
489.398	24.00069
489.608	33.97924
489.819	21.53782
490.029	27.35483
490.24	31.85643
490.45	35.23241
490.661	22.60563
490.871	32.33471
491.082	17.52605
491.292	30.52266
491.503	22.98947
491.713	31.25315
491.924	21.76835
492.134	35.41174
492.344	21.89448
492.555	33.78469
492.765	26.00235
492.975	33.60534
493.186	21.02673
493.396	31.40424
493.607	18.75934
493.817	32.05535
494.027	22.66761
494.237	30.41179
494.448	20.04367
494.658	30.49331
494.868	18.02198
495.078	27.8821
495.289	23.76039
495.499	35.01395
495.709	21.06044
495.919	32.7271
496.129	21.36709
496.34	27.12109
496.55	19.70655
496.76	34.8531
496.97	22.73394
497.18	30.12046
497.39	25.60986
497.6	34.42378
497.81	24.77376
498.021	38.61231
498.231	25.81426
498.441	30.48027
498.651	20.00017
498.861	26.3807
499.071	23.12648
499.281	32.61406
499.491	20.21223
499.701	30.03132
499.911	20.3275
500.121	32.33579
500.331	23.82019
500.54	35.99646
500.75	24.32905
500.96	30.29873
501.17	23.55271
501.38	31.48033
501.59	25.25542
501.8	30.74877
502.01	17.31615
502.219	32.43797
502.429	25.64356
502.639	34.46834
502.849	23.73321
503.059	29.42038
503.268	21.92167
503.478	28.33109
503.688	23.73321
503.898	33.83794
504.107	25.6153
504.317	38.42974
504.527	23.19063
504.736	35.48456
504.946	23.95828
505.156	32.77493
505.365	25.47287
505.575	28.5333
505.785	22.5306
505.994	32.79558
506.204	21.21377
506.413	30.24003
506.623	17.08123
506.832	29.75629
507.042	22.35989
507.251	34.09011
507.461	24.66503
507.67	32.60319
507.88	20.04258
508.089	31.38576
508.299	24.69547
508.508	29.29754
508.718	20.63851
508.927	31.67708
509.137	25.39785
509.346	34.41835
509.555	22.59367
509.765	30.79877
509.974	29.35081
510.184	31.65317
510.393	20.59828
510.602	31.69556
510.812	26.42963
511.021	28.18977
511.23	26.74274
511.439	22.63934
511.649	18.70605
511.858	32.69449
512.067	21.85099
512.276	29.73346
512.486	33.81729
512.695	28.47242
512.904	19.92622
513.113	26.68077
513.322	21.43777
513.531	32.56732
513.741	21.93798
513.95	26.20784
514.159	20.01975
514.368	31.00531
514.577	18.08941
514.786	29.9911
514.995	18.99315
515.204	32.40862
515.413	16.95398
515.622	30.23134
515.831	23.16453
516.04	28.07888
516.249	19.82944
516.458	25.47395
516.667	20.26551
516.876	28.63658
517.085	18.93878
517.294	27.33961
517.503	18.06222
517.712	30.88356
517.921	22.15872
518.13	31.0814
518.339	23.07863
518.547	35.0596
518.756	23.09277
518.965	28.2039
519.174	23.88652
519.383	27.16566
519.591	18.25037
519.8	27.19719
520.009	21.20615
520.218	29.01598
520.426	20.53194
520.635	31.11184
520.844	20.79728
521.053	31.50207
521.261	19.12474
521.47	26.45681
521.679	21.55848
521.887	29.76933
522.096	18.7017
522.304	26.11325
522.513	18.90941
522.722	26.4155
522.93	21.68027
523.139	28.49634
523.347	17.84471
523.556	27.5777
523.764	17.46189
523.973	26.37092
524.182	13.57025
524.39	30.66398
524.598	16.83435
524.807	25.5979
525.015	22.91118
525.224	30.42374
525.432	17.58152
525.641	28.7192
525.849	18.93878
526.057	29.93131
526.266	19.71199
526.474	26.68947
526.683	17.75227
526.891	27.9669
527.099	17.90344
527.308	29.90848
527.516	17.07036
527.724	32.7184
527.932	16.50698
528.141	27.15479
528.349	22.27398
528.557	25.30325
528.765	21.23769
528.974	29.30297
529.182	17.46406
529.39	27.27547
529.598	18.84525
529.806	27.30047
530.015	19.92622
530.223	25.21627
530.431	18.7017
530.639	24.23555
530.847	14.87985
531.055	26.16978
531.263	22.82202
531.471	27.75491
531.679	17.85776
531.887	29.52474
532.095	23.73756
532.303	30.56723
532.511	21.79336
532.719	30.39983
532.927	20.43625
533.135	30.55093
533.343	24.24098
533.551	30.75855
533.759	22.70132
533.967	28.58657
534.175	22.58171
534.383	33.1434
534.591	22.02932
534.798	32.68471
535.006	18.83764
535.214	29.53887
535.422	20.15133
535.63	29.19861
535.837	15.62599
536.045	29.68019
536.253	22.54691
536.461	29.40407
536.668	16.56244
536.876	33.59447
537.084	25.14778
537.292	34.19336
537.499	24.49215
537.707	33.32383
537.915	19.85228
538.122	37.45059
538.33	20.56348
538.538	31.61838
538.745	26.10564
538.953	30.7292
539.16	20.42102
539.368	29.85195
539.575	20.81359
539.783	29.60192
539.99	22.91879
540.198	26.98736
540.406	22.50451
540.613	30.90421
540.82	21.29424
541.028	27.08086
541.235	24.95316
541.443	31.45425
541.65	23.29067
541.858	31.34446
542.065	21.53238
542.272	27.93103
542.48	26.04258
542.687	29.57692
542.895	20.0937
543.102	33.12057
543.309	20.41341
543.516	30.95422
543.724	22.12284
543.931	31.06836
544.138	21.12133
544.346	28.55396
544.553	24.38886
544.76	26.7384
544.967	22.4186
545.174	32.24231
545.382	22.51538
545.589	30.9727
545.796	20.43842
546.003	27.81579
546.21	25.05971
546.417	34.80962
546.624	22.52408
546.832	31.69339
547.039	24.41169
547.246	33.14231
547.453	22.50886
547.66	29.68889
547.867	22.08587
548.074	33.07384
548.281	17.8632
548.488	27.70381
548.695	23.29719
548.902	32.12166
549.109	21.17462
549.316	28.89422
549.523	17.32485
549.73	26.96018
549.936	23.76692
550.143	30.23351
550.35	18.04917
550.557	25.0858
550.764	17.96217
550.971	27.97886
551.178	18.5353
551.384	29.95848
551.591	20.13937
551.798	32.43688
552.005	23.26783
552.211	31.55968
552.418	20.05672
552.625	24.36167
552.832	24.31057
553.038	30.5868
553.245	22.84594
553.452	32.61188
553.658	19.15193
553.865	27.53856
554.072	19.93492
554.278	31.6173
554.485	24.57043
554.691	31.25315
554.898	22.79483
555.105	27.59727
555.311	20.01213
555.518	33.22818
555.724	18.58316
555.931	29.6291
556.137	20.54717
556.344	27.51247
556.55	20.55043
556.757	29.59649
556.963	23.20803
557.17	30.37157
557.376	22.3327
557.582	31.26837
557.789	20.78858
557.995	27.66141
558.202	21.52585
558.408	27.84188
558.614	19.91752
558.821	29.24427
559.027	22.28486
559.233	32.99775
559.439	25.38371
559.646	29.87478
559.852	20.26551
560.058	34.57268
560.264	27.21893
560.471	32.88362
560.677	23.67667
560.883	33.71078
561.089	21.97278
561.295	31.4999
561.502	24.9412
561.708	27.63749
561.914	23.90392
562.12	31.4075
562.326	26.36005
562.532	36.64094
562.738	24.68677
562.944	29.70085
563.15	21.72268
563.356	29.42147
563.562	21.4878
563.768	34.69985
563.974	19.14214
564.18	29.82803
564.386	21.75856
564.592	29.90304
564.798	20.38079
565.004	31.45425
565.21	21.88361
565.416	30.72159
565.622	22.07064
565.828	34.12489
566.034	26.13173
566.239	30.56723
566.445	29.04533
566.651	39.68161
566.857	29.62149
567.063	39.98588
567.268	32.90971
567.474	38.78292
567.68	27.32439
567.886	40.4727
568.091	37.25171
568.297	44.04098
568.503	40.36621
568.708	50.30063
568.914	42.23408
569.12	51.77679
569.325	35.9432
569.531	49.57936
569.737	33.53796
569.942	40.35969
570.148	38.31129
570.353	56.52298
570.559	45.77389
570.765	52.70981
570.97	44.93407
571.176	57.43194
571.381	41.43653
571.587	44.30174
571.792	37.87442
571.998	43.64224
572.203	35.89104
572.408	56.84335
572.614	50.66561
572.819	59.5625
573.025	44.05076
573.23	48.70055
573.435	44.72438
573.641	54.83639
573.846	40.28471
574.051	55.02211
574.257	47.17968
574.462	56.79448
574.667	42.25581
574.873	51.54544
575.078	51.34775
575.283	55.67699
575.488	48.11068
575.694	64.31383
575.899	46.45072
576.104	55.07206
576.309	49.84441
576.514	60.20858
576.719	60.59296
576.925	76.95463
577.13	61.8058
577.335	64.66775
577.54	51.07728
577.745	52.92052
577.95	46.62128
578.155	52.82385
578.36	43.33584
578.565	54.95151
578.77	55.98759
578.975	67.59128
579.18	49.37188
579.385	63.92624
579.59	65.01516
579.795	59.77858
580	44.40713
580.205	55.07315
580.41	63.22922
580.615	95.93731
580.82	95.43957
581.024	89.5494
581.229	74.10049
581.434	80.33797
581.639	58.76437
581.844	55.72043
582.049	43.86497
582.253	58.28657
582.458	42.50246
582.663	50.32344
582.868	35.43022
583.072	44.84606
583.277	49.69559
583.482	62.48115
583.686	58.0607
583.891	60.8427
584.096	54.13696
584.3	65.90864
584.505	50.36255
584.71	58.81541
584.914	54.84725
585.119	60.10108
585.323	46.34099
585.528	49.37405
585.733	42.11999
585.937	52.67071
586.142	41.07143
586.346	57.21692
586.551	48.7364
586.755	58.05636
586.959	61.04683
587.164	70.44285
587.368	52.99872
587.573	63.48544
587.777	75.52434
587.982	172.47861
588.186	321.55631
588.39	188.75327
588.595	115.14409
588.799	210.15954
589.003	109.96919
589.208	62.61795
589.412	46.5398
589.616	47.26442
589.82	43.46514
590.025	46.6517
590.229	37.48862
590.433	41.20834
590.637	40.14127
590.842	48.57671
591.046	46.69407
591.25	49.86939
591.454	33.22275
591.658	45.78258
591.862	54.97541
592.067	80.20451
592.271	65.71431
592.475	59.53752
592.679	55.17958
592.883	63.2303
593.087	51.82784
593.291	56.70217
593.495	41.08882
593.699	49.50115
593.903	50.09425
594.107	73.16171
594.311	61.96107
594.515	69.28142
594.719	47.1547
594.923	53.45163
595.127	51.88976
595.33	52.63921
595.534	35.98776
595.738	55.42503
595.942	46.85812
596.146	50.4766
596.35	47.50668
596.553	50.61781
596.757	48.5224
596.961	64.16509
597.165	48.99929
597.369	45.91295
597.572	41.10946
597.776	47.73372
597.98	53.41579
598.183	65.0879
598.387	56.33728
598.591	51.49113
598.794	44.43429
598.998	52.65115
599.202	50.83397
599.405	62.8655
599.609	55.38159
599.812	62.71784
600.016	53.81113
600.22	69.01982
600.423	61.56259
600.627	63.93818
600.83	46.3888
601.034	60.27373
601.237	61.23142
601.441	50.9339
601.644	41.06382
601.847	59.41482
602.051	49.81182
602.254	53.82091
602.458	52.334
602.661	67.16683
602.864	51.13485
603.068	57.41891
603.271	42.34491
603.475	48.08244
603.678	41.56258
603.881	52.33726
604.084	38.43409
604.288	50.10945
604.491	49.43706
604.694	60.41054
604.897	43.57922
605.101	51.06968
605.304	45.79453
605.507	47.40673
605.71	34.36726
605.913	58.97612
606.116	50.84701
606.32	54.89178
606.523	42.1515
606.726	49.17309
606.929	44.13116
607.132	52.55883
607.335	49.25348
607.538	49.51201
607.741	39.06112
607.944	40.36621
608.147	33.20753
608.35	47.94339
608.553	39.96849
608.756	46.51047
608.959	42.31232
609.162	60.84162
609.365	45.9727
609.568	52.01792
609.771	33.85751
609.973	50.45162
610.176	45.19916
610.379	48.04985
610.582	34.12597
610.785	51.04578
610.988	41.9983
611.19	42.55571
611.393	33.43144
611.596	41.844
611.799	33.59339
612.001	50.22786
612.204	36.07362
612.407	43.81173
612.609	37.32561
612.812	52.27969
613.015	36.49422
613.217	45.10899
613.42	34.94657
613.623	43.74437
613.825	40.40533
614.028	49.21003
614.23	33.81512
614.433	39.63163
614.636	40.81064
614.838	54.30422
615.041	44.1442
615.243	35.76279
615.446	25.2228
615.648	33.91946
615.85	28.74203
616.053	34.7205
616.255	32.14122
616.458	44.27458
616.66	31.92818
616.863	38.46886
617.065	30.18133
617.267	41.25941
617.47	28.57135
617.672	38.6373
617.874	21.72703
618.077	37.63751
618.279	33.64882
618.481	39.83266
618.683	28.67136
618.886	33.05427
619.088	36.95176
619.29	50.37993
619.492	28.10279
619.694	34.12163
619.897	29.95305
620.099	33.34666
620.301	17.8545
620.503	29.15078
620.705	21.59219
620.907	35.30088
621.109	24.53455
621.311	41.17466
621.513	35.73671
621.715	35.86821
621.917	28.97576
622.119	39.536
622.321	28.38436
622.523	40.36404
622.725	26.23828
622.927	36.26816
623.129	25.78491
623.331	33.14449
623.533	23.81802
623.735	36.23121
623.937	30.59767
624.139	30.32808
624.341	25.2565
624.542	27.6027
624.744	20.5352
624.946	32.94232
625.148	25.13364
625.35	33.34122
625.551	23.16453
625.753	28.45285
625.955	21.64221
626.156	31.30533
626.358	25.01404
626.56	30.68681
626.762	25.65226
626.963	34.8031
627.165	18.29387
627.366	34.07924
627.568	19.01925
627.77	26.16978
627.971	20.57761
628.173	31.55208
628.374	19.05188
628.576	31.98253
628.777	25.26194
628.979	27.60488
629.18	15.82503
629.382	26.6873
629.583	25.08798
629.785	30.0074
629.986	17.93172
630.188	27.94516
630.389	18.99859
630.591	29.41603
630.792	15.37148
630.993	27.12544
631.195	15.2105
631.396	26.34157
631.597	15.43891
631.799	23.65601
632	22.9438
632.201	25.11516
632.402	19.31614
632.604	30.51614
632.805	19.06602
633.006	26.1513
633.207	22.57627
633.409	35.4563
633.61	21.85425
633.811	28.51373
634.012	17.89909
634.213	29.09099
634.414	16.87568
634.615	28.54635
634.816	23.91588
635.017	31.22815
635.219	20.93865
635.42	28.6007
635.621	22.46862
635.822	36.48009
636.023	22.06521
636.224	27.65924
636.425	16.1796
636.626	24.7781
636.826	17.06274
637.027	33.41187
637.228	14.89508
637.429	22.41208
637.63	15.76086
637.831	20.99411
638.032	15.08869
638.233	24.43561
638.433	13.62463
638.634	24.04853
638.835	15.32797
639.036	24.43343
639.237	14.08148
639.437	22.38707
639.638	16.94419
639.839	23.70929
640.039	13.80955
640.24	26.50356
640.441	17.91105
640.641	21.1159
640.842	14.8842
641.043	21.50193
641.243	10.33621
641.444	22.88074
641.645	14.31751
641.845	19.55865
642.046	12.77619
642.246	20.42972
642.447	8.90127
642.647	26.71448
642.848	17.26177
643.048	27.06673
643.249	15.03756
643.449	23.37983
643.65	10.51679
643.85	19.49775
644.05	9.99896
644.251	22.32835
644.451	14.71996
644.651	19.94906
644.852	13.33638
645.052	22.32727
645.252	13.98358
645.453	18.87788
645.653	12.38785
645.853	21.96082
646.054	10.05989
646.254	19.14323
646.454	12.22686
646.654	21.4095
646.854	15.20289
647.055	17.62394
647.255	10.41018
647.455	23.49182
647.655	18.60056
647.855	23.30698
648.055	14.42737
648.255	20.78749
648.455	16.70166
648.655	27.12652
648.856	15.89899
649.056	20.83534
649.256	15.48568
649.456	25.38697
649.656	14.62533
649.856	26.76666
650.055	19.65
650.255	25.55115
650.455	17.69463
650.655	26.6699
650.855	24.35732
651.055	41.15075
651.255	27.89298
651.455	42.06892
651.655	26.23502
651.854	32.21731
652.054	23.29284
652.254	34.71941
652.454	33.57165
652.654	43.80304
652.853	46.97219
653.053	66.6501
653.253	106.48873
653.452	250.70215
653.652	758.92278
653.852	1800.09267
654.051	3371.17471
654.251	5625.19224
654.451	8396.96742
654.65	11605.42404
654.85	16204.54539
655.049	24563.22404
655.249	32743.4421
655.449	25392.06678
655.648	9297.6107
655.848	2861.48586
656.047	1619.37657
656.247	1273.90018
656.446	1026.91485
656.645	772.56856
656.845	557.01299
657.044	387.32499
657.244	248.81271
657.443	168.86109
657.643	115.39549
657.842	87.54921
658.041	62.55389
658.241	64.83929
658.44	46.07374
658.639	51.54978
658.839	37.89833
659.038	41.46044
659.237	30.97487
659.436	36.91807
659.636	27.44615
659.835	35.68997
660.034	25.44895
660.233	29.69432
660.432	23.13409
660.631	33.68143
660.831	21.40624
661.03	28.50721
661.229	21.21377
661.428	28.80073
661.627	19.90665
661.826	32.72601
662.025	17.74792
662.224	27.73316
662.423	16.67556
662.622	25.18801
662.821	16.37429
663.02	26.91778
663.219	17.06492
663.418	29.77912
663.617	18.22209
663.816	23.3135
664.015	17.9241
664.214	25.67618
664.412	13.89548
664.611	26.07737
664.81	16.17851
665.009	27.41136
665.208	14.92662
665.406	23.6223
665.605	14.44369
665.804	21.37688
666.003	13.54305
666.201	20.61241
666.4	9.41803
666.599	21.07892
666.798	8.16799
666.996	21.58784
667.195	10.62014
667.394	19.7718
667.592	13.92485
667.791	22.60346
667.989	9.33317
668.188	21.41494
668.386	16.20462
668.585	22.30878
668.783	10.89645
668.982	21.67592
669.18	13.65835
669.379	25.0173
669.577	8.84905
669.776	18.00785
669.974	12.70222
670.173	20.17961
670.371	10.32098
670.57	19.0758
670.768	9.8075
670.966	21.57153
671.165	16.47979
671.363	23.14387
671.561	13.21891
671.76	23.57337
671.958	13.05792
672.156	19.22588
672.354	9.16128
672.553	16.40692
672.751	10.61688
672.949	15.75542
673.147	12.20401
673.345	19.55213
673.543	9.85428
673.742	14.36646
673.94	7.96237
674.138	16.33187
674.336	10.84315
674.534	18.58533
674.732	13.14385
674.93	18.06657
675.128	7.34548
675.326	20.0328
675.524	5.90059
675.722	18.0035
675.92	6.66221
676.118	16.54396
676.316	9.27442
676.514	16.00449
676.712	8.87733
676.91	14.20548
677.108	12.82187
677.305	20.96148
677.503	7.4891
677.701	18.44613
677.899	7.12788
678.097	16.06758
678.295	9.43543
678.492	13.48105
678.69	7.5707
678.888	18.52552
679.085	10.50918
679.283	17.98392
679.481	11.27067
679.679	16.3025
679.876	7.43361
680.074	20.18613
680.271	11.54698
680.469	16.69187
680.667	9.85319
680.864	14.57747
681.062	9.92825
681.259	19.59998
681.457	7.37812
681.654	17.00401
681.852	3.99316
682.049	16.50045
682.247	5.47842
682.444	13.91397
682.642	7.92211
682.839	15.94141
683.037	9.98156
683.234	16.85936
683.431	8.34424
683.629	17.99262
683.826	8.01785
684.023	19.93819
684.221	12.59562
684.418	20.47757
684.615	12.07783
684.813	23.17976
685.01	14.19243
685.207	21.98365
685.404	9.62691
685.601	16.28836
685.799	11.61334
685.996	17.34878
686.193	7.57831
686.39	12.02779
686.587	9.51594
686.784	18.14379
686.981	12.75443
687.179	21.66939
687.376	6.54906
687.573	18.04917
687.77	8.33989
687.967	14.32948
688.164	9.23743
688.361	16.28401
688.558	6.09317
688.755	14.50677
688.952	12.58039
689.148	17.18782
689.345	3.07803
689.542	16.51676
689.739	5.13459
689.936	12.71962
690.133	8.41387
690.33	14.50351
690.526	8.85666
690.723	21.15178
690.92	10.39821
691.117	17.95564
691.314	9.21459
691.51	15.91096
691.707	8.52702
691.904	16.02407
692.1	12.26167
692.297	15.23226
692.494	5.11174
692.69	21.67048
692.887	11.45343
693.084	13.54197
693.28	5.21293
693.477	17.67505
693.673	4.5666
693.87	17.64134
694.066	4.03995
694.263	12.84037
694.459	6.49901
694.656	16.48087
694.852	10.29813
695.049	14.51765
695.245	5.60681
695.442	14.57747
695.638	-0.12138
695.834	12.87517
696.031	8.12991
696.227	16.39169
696.423	14.88746
696.62	22.69915
696.816	11.05854
697.012	17.23567
697.209	6.69703
697.405	17.08776
697.601	6.69268
697.797	14.18372
697.994	6.69485
698.19	14.75694
698.386	10.30248
698.582	15.29426
698.778	2.4915
698.974	13.57351
699.17	6.34016
699.367	15.25075
699.563	10.3634
699.759	9.73896
699.955	4.04757
700.151	11.90269
700.347	8.01785
700.543	16.30794
700.739	6.60346
700.935	15.06911
701.131	4.66671
701.327	14.74171
701.523	9.86951
701.718	14.83634
701.914	7.62292
702.11	17.29549
702.306	6.81998
702.502	16.90395
702.698	3.49153
702.894	12.53035
703.089	3.45671
703.285	14.12172
703.481	2.71131
703.677	14.77326
703.872	5.00511
704.068	16.44281
704.264	2.06384
704.459	8.60535
704.655	3.43495
704.851	12.15615
705.046	4.72002
705.242	10.54834
705.438	4.72982
705.633	12.94588
705.829	5.64598
706.024	16.52438
706.22	8.58468
706.415	16.59725
706.611	9.89018
706.806	15.2812
707.002	5.89841
707.197	15.94467
707.393	4.40012
707.588	12.11699
707.784	6.53165
707.979	12.93283
708.174	7.2715
708.37	14.57421
708.565	2.47082
708.76	13.32333
708.956	4.57531
709.151	11.73517
709.346	5.5622
709.542	12.45638
709.737	2.54373
709.932	16.1274
710.127	8.55639
710.322	13.24066
710.518	4.37401
710.713	14.60358
710.908	4.21296
711.103	14.76347
711.298	7.19207
711.493	14.52091
711.688	3.41753
711.883	11.86788
712.078	10.43629
712.273	15.87941
712.468	1.16061
712.663	17.42382
712.858	7.64903
713.053	17.25198
713.248	4.67541
713.443	13.91288
713.638	2.85278
713.833	14.97992
714.028	5.23687
714.223	15.46393
714.418	8.30181
714.613	16.25247
714.807	9.60297
715.002	16.43846
715.197	7.20187
715.392	11.05528
715.587	1.88754
715.781	14.35449
715.976	5.2793
716.171	12.69134
716.365	3.51438
716.56	18.62122
716.755	0.15613
716.949	12.58691
717.144	3.84409
717.339	13.39838
717.533	6.10296
717.728	16.79193
717.922	4.96811
718.117	11.87332
718.312	4.34571
718.506	12.26384
718.701	8.50199
718.895	16.36885
719.089	5.85489
719.284	15.12675
719.478	7.28455
719.673	11.16406
719.867	5.4349
720.062	11.84504
720.256	1.69819
720.45	13.3973
720.645	2.72111
720.839	11.61334
721.033	4.95179
721.228	9.47786
721.422	8.09619
721.616	10.19587
721.81	2.71784
722.005	10.67562
722.199	7.67841
722.393	12.45203
722.587	5.40878
722.781	14.58726
722.975	3.67434
723.169	15.9066
723.364	6.61543
723.558	10.78876
723.752	4.42515
723.946	13.71274
724.14	7.23886
724.334	10.11863
724.528	7.15943
724.722	16.34275
724.916	10.89428
725.11	15.69016
725.304	10.41997
725.498	13.43863
725.692	4.80707
725.885	12.84145
726.079	6.83412
726.273	13.15799
726.467	3.58076
726.661	10.88775
726.855	7.28455
727.048	18.02416
727.242	5.56764
727.436	14.10432
727.63	8.4378
727.823	17.76858
728.017	3.37074
728.211	13.96509
728.405	8.24524
728.598	17.08341
728.792	6.02789
728.986	18.58424
729.179	3.42624
729.373	16.47544
729.566	5.11065
729.76	14.16197
729.953	8.54116
730.147	14.71996
730.34	9.68239
730.534	22.82528
730.727	9.34296
730.921	15.56835
731.114	8.10054
731.308	13.65074
731.501	6.36192
731.695	10.66583
731.888	3.75268
732.081	11.59702
732.275	7.29326
732.468	16.81803
732.661	5.71018
732.855	12.35087
733.048	5.67427
733.241	12.34108
733.434	7.20404
733.628	22.00105
733.821	10.25135
734.014	16.50371
734.207	10.86817
734.4	16.87241
734.594	3.56988
734.787	15.54551
734.98	6.84826
735.173	18.98554
735.366	4.45888
735.559	16.6984
735.752	4.04539
735.945	11.69166
736.138	5.53826
736.331	14.17067
736.524	10.41671
736.717	13.78779
736.91	3.91482
737.103	14.9636
737.296	2.49259
737.489	11.71015
737.682	0.02227
737.875	7.69037
738.067	5.31956
738.26	13.00027
738.453	3.85497
738.646	18.63536
738.839	8.63037
739.031	17.26503
739.224	6.43917
739.417	14.45565
739.61	9.17216
739.802	11.77433
739.995	4.69282
740.188	15.33667
740.38	6.92225
740.573	11.22063
740.765	3.56988
740.958	9.05031
741.151	5.25863
741.343	10.22742
741.536	2.31739
741.728	11.32833
741.921	3.53179
742.113	13.53
742.306	2.27821
742.498	12.12025
742.691	0.56859
742.883	9.15802
743.076	1.2999
743.268	12.28995
743.46	8.70979
743.653	11.572
743.845	6.26943
744.037	11.17929
744.23	2.91371
744.422	12.37371
744.614	1.60678
744.807	10.73545
744.999	2.61338
745.191	14.97013
745.383	1.18564
745.575	14.78522
745.768	2.69499
745.96	8.95675
746.152	5.16179
746.344	9.7085
746.536	6.95924
746.728	15.21921
746.92	6.23571
747.112	12.20728
747.304	4.32722
747.496	11.18147
747.688	2.25971
747.88	9.50941
748.072	6.63066
748.264	16.0828
748.456	3.88979
748.648	10.95411
748.84	5.06169
749.032	12.13875
749.224	9.76398
749.416	14.9201
749.608	2.80598
749.799	17.55759
749.991	8.52919
750.183	13.6007
750.375	0.81672
750.567	12.64348
750.758	0.57621
750.95	12.73159
751.142	5.84618
751.333	11.18147
751.525	2.00072
751.717	12.07892
751.908	4.73852
752.1	13.94116
752.292	4.82122
752.483	11.36966
752.675	3.73854
752.866	15.9512
753.058	11.70254
753.249	20.76031
753.441	10.15018
753.632	7.74368
753.824	6.10405
754.015	6.87982
754.207	5.62204
754.398	13.89765
754.589	0.29652
754.781	8.69238
754.972	1.36955
755.164	15.68146
755.355	6.10405
755.546	13.95204
755.738	5.92344
755.929	15.61076
756.12	8.30181
756.311	21.30402
756.503	8.25938
756.694	17.87516
756.885	6.19762
757.076	19.60542
757.267	12.24317
757.458	17.83927
757.65	8.93064
757.841	17.38032
758.032	10.5157
758.223	18.09485
758.414	10.16976
758.605	12.48575
758.796	3.46433
758.987	18.75499
759.178	7.82746
759.369	13.78997
759.56	4.20861
759.751	13.60179
759.942	5.2608
760.133	13.26133
760.324	7.02779
760.514	14.35776
760.705	8.11903
760.896	15.32471
761.087	5.72867
761.278	13.54632
761.468	1.55999
761.659	13.60832
761.85	4.18358
762.041	9.55837
762.231	3.38815
762.422	14.16632
762.613	5.87774
762.803	13.97053
762.994	12.06369
763.185	12.77075
763.375	6.8091
763.566	12.1605
763.757	2.16613
763.947	12.99048
764.138	8.56183
764.328	18.90506
764.519	10.49939
764.709	16.33404
764.9	4.91153
765.09	11.48171
765.281	2.70587
765.471	11.94077
765.661	0.22034
765.852	11.99733
766.042	4.10415
766.232	9.82381
766.423	1.9376
766.613	9.05358
766.803	4.83536
766.994	13.93137
767.184	3.65802
767.374	18.42438
767.564	9.47025
767.755	16.46021
767.945	6.74381
768.135	13.76821
768.325	9.84884
768.515	19.12257
768.706	7.37921
768.896	13.39186
769.086	11.2587
769.276	15.94358
769.466	2.91263
769.656	13.03181
769.846	7.07892
770.036	14.83852
770.226	6.40653
770.416	16.04365
770.606	9.23852
770.796	16.34275
770.986	5.20531
771.176	12.06369
771.366	2.76028
771.555	11.41862
771.745	0.69048
771.935	13.42014
772.125	2.09539
772.315	10.04357
772.504	5.59267
772.694	12.05281
772.884	2.00398
773.074	10.22851
773.263	3.78859
773.453	13.89439
773.643	2.67323
773.832	10.36884
774.022	5.10847
774.212	9.01767
774.401	1.08008
774.591	11.48932
774.781	0.08213
774.97	6.53818
775.16	-1.37622
775.349	10.12407
775.539	0.13001
775.728	14.90052
775.918	5.88971
776.107	24.45192
776.297	22.85464
776.486	51.49439
776.675	48.34424
776.865	40.67155
777.054	20.38949
777.243	18.48419
777.433	6.86132
777.622	14.5133
777.811	3.81362
778.001	12.29648
778.19	6.0997
778.379	9.71394
778.568	1.83858
778.758	12.41287
778.947	3.04647
779.136	12.59888
779.325	4.00404
779.514	10.25135
779.703	4.99096
779.892	12.86974
780.082	-1.1727
780.271	12.28886
780.46	2.2336
780.649	16.40692
780.838	3.16943
781.027	10.87035
781.216	1.50775
781.405	9.23308
781.594	-0.77655
781.783	12.56516
781.971	8.04179
782.16	14.66775
782.349	3.70154
782.538	8.27026
782.727	0.39882
782.916	9.94348
783.105	1.48817
783.293	14.50786
783.482	5.43272
783.671	9.87059
783.86	3.05409
784.048	10.83771
784.237	0.72966
784.426	7.10503
784.614	2.9975
784.803	12.97742
784.992	0.16702
785.18	10.84968
785.369	2.58944
785.557	10.18826
785.746	2.10301
785.935	12.47596
786.123	3.13135
786.312	10.09035
786.5	1.89407
786.689	13.42993
786.877	0.3172
787.065	15.44109
787.254	0.65565
787.442	11.80153
787.631	-0.06588
787.819	13.71057
788.007	2.17701
788.196	16.62553
788.384	8.22892
788.572	17.13996
788.761	2.45776
788.949	8.601
789.137	-1.20209
789.325	6.76122
789.513	0.29761
789.702	11.18038
789.89	0.69265
790.078	7.99392
790.266	-2.85316
790.454	11.41318
790.642	-2.2763
790.83	12.22903
791.018	3.25866
791.207	13.31572
791.395	3.73092
791.583	8.41496
791.771	3.31416
791.959	10.51462
792.146	3.80492
792.334	9.18957
792.522	2.94962
792.71	9.02094
792.898	1.06375
793.086	9.36581
793.274	2.84189
793.462	14.49155
793.65	8.45304
793.837	14.24137
794.025	4.08021
794.213	14.77652
794.401	4.36748
794.588	10.07076
794.776	-0.40325
794.964	11.11837
795.151	1.60787
795.339	13.59962
795.527	1.1889
795.714	8.4291
795.902	-1.47526
796.089	9.43217
796.277	0.41297
796.465	12.33346
796.652	0.00268
796.84	9.69218
797.027	1.95719
797.215	8.67498
797.402	3.09109
797.59	11.10858
797.777	-0.86361
797.964	9.0155
798.152	0.4195
798.339	17.1019
798.526	0.51309
798.714	9.51376
798.901	-1.84095
799.088	9.90323
799.276	1.90604
799.463	8.4476
799.65	1.38478
799.837	8.62167
800.025	0.26714
800.212	13.22978
800.399	2.94745
800.586	9.0155
800.773	0.26279
800.96	9.99788
801.148	1.01369
801.335	10.02072
801.522	1.55672
801.709	7.31067
801.896	-1.44914
802.083	9.82055
802.27	-0.01473
802.457	11.92336
802.644	0.05819
802.831	11.20214
803.018	1.70472
803.204	7.97216
803.391	-0.27374
803.578	6.94619
803.765	-0.95721
803.952	12.79142
804.139	1.40655
804.326	10.88014
804.512	1.95501
804.699	6.36301
804.886	-0.74825
805.073	7.44231
805.259	1.59046
805.446	18.54183
805.633	6.9266
805.819	10.5157
806.006	4.42297
806.192	9.17216
806.379	2.10301
806.566	6.82433
806.752	-0.83749
806.939	8.01677
807.125	-0.4359
807.312	9.75963
807.498	1.21066
807.685	10.52658
807.871	3.6961
808.058	7.85248
808.244	3.15202
808.43	13.89222
808.617	3.21187
808.803	10.82248
808.99	0.20511
809.176	11.56982
809.362	0.39447
809.549	7.9047
809.735	1.14972
809.921	5.88644
810.107	2.9518
810.293	9.40171
810.48	1.10728
810.666	11.02917
810.852	1.78525
811.038	11.97014
811.224	0.38794
811.41	7.07566
811.597	3.49806
811.783	8.58359
811.969	-2.12393
812.155	10.28616
812.341	1.43158
812.527	9.43543
812.713	3.86912
812.899	7.48257
813.085	1.89299
813.271	12.26058
813.456	3.55464
813.642	4.53613
813.828	0.1964
814.014	13.07532
814.2	2.04751
814.386	7.66317
814.572	-2.96853
814.757	10.1393
814.943	2.70587
815.129	7.88947
815.315	0.08322
815.5	6.82542
815.686	2.20857
815.872	8.82076
816.057	-0.60894
816.243	14.58617
816.429	1.34778
816.614	9.32991
816.8	-2.75085
816.985	10.92039
817.171	3.80274
817.356	10.16759
817.542	-1.19664
817.727	8.22674
817.913	0.51527
818.098	9.00462
818.284	-2.40147
818.469	8.14841
818.655	4.32286
818.84	12.49772
819.025	-3.53451
819.211	10.74198
819.396	2.37071
819.581	7.04846
819.767	0.0473
819.952	12.39438
820.137	2.73743
820.322	9.68565
820.508	5.52194
820.693	9.55075
820.878	3.21296
821.063	9.90105
821.248	3.97249
821.433	8.99483
821.618	3.68087
821.804	11.21193
821.989	-0.02888
822.174	8.62928
822.359	0.34658
822.544	7.74586
822.729	2.66126
822.914	9.57033
823.099	-0.86035
823.284	7.31284
823.469	-2.6148
823.653	11.55024
823.838	1.68622
824.023	6.47181
824.208	2.52959
824.393	12.95893
824.578	0.32046
824.762	8.38993
824.947	3.07476
825.132	7.82093
825.317	-0.76893
825.501	6.63501
825.686	-0.87994
825.871	8.48132
826.056	1.11599
826.24	10.96716
826.425	2.85713
826.609	5.35764
826.794	2.92786
826.979	13.35487
827.163	3.16291
827.348	8.71305
827.532	-4.82979
827.717	11.04222
827.901	-0.81246
828.086	11.22172
828.27	0.52288
828.455	8.50961
828.639	1.97243
828.823	9.16346
829.008	-0.52188
829.192	5.51215
829.376	1.00607
829.561	9.62691
829.745	1.35322
829.929	9.27442
830.114	0.71442
830.298	8.71414
830.482	-0.38802
830.666	8.73264
830.85	0.79822
831.035	8.34424
831.219	-2.59303
831.403	7.10286
831.587	-2.15441
831.771	9.88147
831.955	-1.16726
832.139	8.03635
832.323	0.80801
832.507	9.28748
832.691	1.1149
832.875	6.7362
833.059	-1.02469
833.243	5.77655
833.427	0.98213
833.611	10.35252
833.795	-2.0423
833.979	6.65351
834.163	1.69058
834.346	9.0514
834.53	-1.75279
834.714	10.19805
834.898	-1.12481
835.082	6.2085
835.265	3.34463
835.449	9.69871
835.633	-0.91259
835.816	6.95163
836	-2.34596
836.184	7.99283
836.367	1.37064
836.551	11.55677
836.735	1.36628
836.918	6.40653
837.102	-2.48963
837.285	7.80352
837.469	1.8636
837.652	9.15258
837.836	0.0473
838.019	11.17385
838.203	1.28793
838.386	6.03442
838.569	-5.51337
838.753	12.57712
838.936	1.60134
839.12	11.94077
839.303	1.33255
839.486	6.36953
839.669	0.77536
839.853	8.46283
840.036	0.00595
840.219	5.57526
840.402	-5.60481
840.586	7.79156
840.769	1.78961
840.952	7.63924
841.135	2.41315
841.318	5.61334
841.501	-3.20145
841.684	4.53505
841.868	1.25746
842.051	5.09759
842.234	-3.70104
842.417	5.56873
842.6	-2.61153
842.783	7.51956
842.966	-1.39146
843.149	12.21489
843.331	2.31848
843.514	21.77487
843.697	20.46343
843.88	32.73906
844.063	9.82381
844.246	12.23447
844.429	1.37717
844.611	11.35878
844.794	1.52843
844.977	10.93344
845.16	1.39131
845.342	12.32802
845.525	-1.93891
845.708	7.78503
845.89	5.21511
846.073	7.55982
846.256	-3.08281
846.438	8.48241
846.621	2.76572
846.803	8.59664
846.986	-5.13348
847.168	9.34079
847.351	-0.08111
847.533	7.5609
847.716	0.75904
847.898	7.93517
848.081	-3.63792
848.263	9.77812
848.446	-5.40561
848.628	12.32258
848.81	-1.17379
848.993	6.48704
849.175	-1.1357
849.357	5.23143
849.539	-3.41805
849.722	9.69979
849.904	-2.71166
850.086	7.27585
850.268	1.91366
850.451	11.65902
850.633	2.65473
850.815	8.22457
850.997	0.21272
851.179	10.13386
851.361	-1.19447
851.543	7.88621
851.725	0.42929
851.907	8.56836
852.089	1.65684
852.271	9.64866
852.453	1.70908
852.635	12.2323
852.817	0.44888
852.999	9.80967
853.181	-1.2195
853.363	8.55204
853.545	-0.83423
853.727	10.96716
853.908	1.60678
854.09	11.77977
854.272	4.63298
854.454	6.12799
854.636	0.41079
854.817	8.40517
854.999	-0.23348
855.181	9.24396
855.362	-0.71016
855.544	9.2766
855.726	-2.31004
855.907	8.20933
856.089	-1.24235
856.27	5.90494
856.452	-3.12744
856.634	12.18226
856.815	0.29652
856.997	11.25109
857.178	0.53921
857.36	8.41061
857.541	1.12252
857.722	4.46541
857.904	-1.38819
858.085	10.66692
858.267	1.95175
858.448	7.04302
858.629	-2.36773
858.811	4.50349
858.992	-2.06298
859.173	6.90919
859.354	-3.32553
859.536	12.35848
859.717	-2.89343
859.898	8.36926
860.079	-0.8364
860.26	8.49655
860.441	-0.43046
860.623	9.09492
860.804	-1.42411
860.985	9.80858
861.166	-2.38406
861.347	7.46516
861.528	-3.00989
861.709	10.88231
861.89	-1.30221
862.071	6.86676
862.252	0.31176
862.433	12.20075
862.614	-0.25742
862.794	4.9877
862.975	-0.67751
863.156	12.49119
863.337	-3.38975
863.518	8.25829
863.699	-1.98135
863.879	9.3038
864.06	1.95501
864.241	8.10598
864.422	-1.96938
864.602	7.55111
864.783	2.39356
864.964	6.15628
865.144	-0.96156
865.325	5.23469
865.506	-0.39999
865.686	9.2679
865.867	-1.05842
866.047	10.24047
866.228	-2.65616
866.408	10.44064
866.589	-0.31836
866.769	12.526
866.95	-3.479
867.13	10.606
867.31	-0.93218
867.491	8.44107
867.671	-3.21451
867.852	8.52702
868.032	-0.48161
868.212	9.75419
868.393	-0.26721
868.573	9.85754
868.753	-1.31527
868.933	10.1665
869.113	-1.28371
869.294	9.8075
869.474	3.22928
869.654	2.68084
869.834	-0.58609
870.014	8.90344
870.194	-0.53276
870.374	8.23653
870.555	-3.64662
870.735	7.525
870.915	-1.51553
871.095	6.87002
871.275	-0.26395
871.455	7.96019
871.634	-1.8083
871.814	7.65447
871.994	-1.53295
872.174	9.72699
872.354	1.32058
872.534	8.53028
872.714	0.13654
872.894	6.41414
873.073	-1.65158
873.253	9.78139
873.433	-4.8853
873.613	7.52174
873.792	0.18552
873.972	9.38648
874.152	2.45776
874.331	9.88365
874.511	-1.93346
874.691	5.50236
874.87	-2.46895
875.05	4.86148
875.229	-0.33251
875.409	7.20839
875.588	-3.13832
875.768	7.24321
875.947	2.87236
876.127	10.27964
876.306	2.42512
876.486	9.27442
876.665	-2.87057
876.844	8.28658
877.024	2.18898
877.203	12.01256
877.382	0.44126
877.562	8.75004
877.741	-3.56064
877.92	8.17126
878.1	2.43274
878.279	6.71553
878.458	-1.12046
878.637	7.04302
878.816	-1.90408
878.996	7.04302
879.175	-0.41305
879.354	9.39518
879.533	3.8245
879.712	9.46807
879.891	-1.00618
880.07	10.9998
880.249	-1.44588
880.428	6.13887
880.607	3.6689
880.786	8.83925
880.965	2.11498
881.144	6.93639
881.323	-2.55711
881.502	5.94302
881.68	-0.3989
881.859	6.22483
882.038	1.23787
882.217	10.19478
882.396	-5.13239
882.574	7.00603
882.753	-2.43739
882.932	3.93223
883.111	0.81236
883.289	8.43563
883.468	-0.68622
883.647	8.6369
883.825	-1.7245
884.004	9.10253
884.182	1.50993
884.361	7.52935
884.539	-3.07302
884.718	9.32012
884.896	-1.3131
885.075	6.81345
885.253	0.22796
885.432	4.99966
885.61	-2.65616
885.789	7.74368
885.967	-0.40108
886.145	11.23368
886.324	-0.65683
886.502	8.86972
886.68	4.06933
886.859	5.2336
887.037	-0.21606
887.215	10.19043
887.393	-1.27936
887.572	8.61514
887.75	-0.29551
887.928	6.42176
888.106	0.85807
888.284	8.18214
888.462	0.26496
888.64	7.55873
888.819	-0.82226
888.997	8.98612
889.175	-3.67057
889.353	7.18337
889.531	-1.37622
889.709	6.69159
889.887	-1.98679
890.065	8.35294
890.242	0.9386
890.42	7.90906
890.598	-0.93218
890.776	9.87386
890.954	0.86025
891.132	7.83399
891.309	-0.21715
891.487	8.03635
891.665	-0.62636
891.843	9.10906
892.02	-0.42284
892.198	8.80662
892.376	-1.29786
892.553	10.17846
892.731	-1.36752
892.909	8.18649
893.086	2.52959
893.264	10.03269
893.441	-1.1357
893.619	5.6536
893.797	-2.71166
893.974	7.41403
894.151	2.07689
894.329	8.60752
894.506	1.23896
894.684	7.70778
894.861	3.05518
895.039	9.52899
895.216	-1.56124
895.393	5.56655
895.571	-4.82108
895.748	8.5825
895.925	-0.78852
896.102	7.67405
896.28	-0.2596
896.457	6.68506
896.634	-1.6211
896.811	5.57961
896.988	-1.09869
897.166	8.6815
897.343	-1.14223
897.52	8.82838
897.697	-2.74867
897.874	11.18908
898.051	0.35311
898.228	9.21568
898.405	-4.34977
898.582	7.61313
898.759	0.55989
898.936	10.56575
899.113	-0.67533
899.29	7.28564
899.467	-0.80702
899.643	6.6002
899.82	-1.50247
899.997	9.22003
900.174	-5.84429
900.351	7.03214
900.527	-2.01074
900.704	6.73946
900.881	0.98649
901.058	7.00929
901.234	-0.38366
901.411	11.17059
901.588	2.33698
901.764	10.96281
901.941	0.25081
902.117	6.4185
902.294	-3.20145
902.471	10.12733
902.647	-0.9953
902.824	7.84378
903	1.32711
903.176	7.84051
903.353	2.87345
903.529	6.50771
903.706	-2.26542
903.882	9.56272
904.058	-3.98078
904.235	4.74614
904.411	-1.78653
904.587	7.97977
904.764	-5.71584
904.94	6.03115
905.116	-1.24018
905.292	6.24332
905.469	-1.30657
905.645	8.87516
905.821	-1.61131
905.997	3.39251
906.173	-1.201
906.349	6.9723
906.525	-3.35274
906.702	9.40171
906.878	1.66555
907.054	6.24006
907.23	-0.54256
907.406	9.95654
907.582	-1.53077
907.757	6.03986
907.933	-1.31419
908.109	7.60116
908.285	-5.58957
908.461	5.75044
908.637	-0.95394
908.813	4.59924
908.988	-1.17161
909.164	6.08447
909.34	-1.17923
909.516	6.65895
909.691	0.49894
909.867	9.30924
910.043	-1.03557
910.219	5.67427
910.394	3.15529
910.57	8.71305
910.745	0.76775
910.921	7.50542
911.097	1.02893
911.272	4.66997
911.448	3.45671
911.623	5.4164
911.799	-0.79069
911.974	8.55095
912.149	-1.69838
912.325	7.46407
912.5	1.28031
912.676	9.55402
912.851	-1.11067
913.026	11.59267
913.202	-1.19556
913.377	5.67754
913.552	-3.08826
913.727	10.38842
913.903	-2.40256
914.078	6.34886
914.253	0.02772
914.428	6.2999
914.603	-4.19521
914.779	6.25529
914.954	-1.56451
915.129	8.42475
915.304	-2.63003
915.479	7.18337
915.654	-2.4363
915.829	7.54023
916.004	0.01683
916.179	5.02795
916.354	-2.75085
916.529	7.10068
916.704	-2.25345
916.879	11.56765
917.053	2.86148
917.228	7.71649
917.403	-0.60241
917.578	12.58691
917.753	0.67415
917.927	4.82557
918.102	-2.81397
918.277	6.20742
918.452	-3.50077
918.626	3.32504
918.801	-0.71995
918.976	4.02037
919.15	-0.26721
919.325	8.267
919.499	-1.58954
919.674	6.6274
919.849	-1.40017
920.023	9.43979
920.198	0.94513
920.372	6.32384
920.547	0.73836
920.721	3.7146
920.895	-0.61765
921.07	6.78516
921.244	-2.99574
921.419	11.48824
921.593	-0.41196
921.767	12.70548
921.942	-4.33562
922.116	4.77769
922.29	-0.68622
922.464	6.09208
922.639	-2.53317
922.813	8.91867
922.987	-2.31875
923.161	7.36507
923.335	-2.45915
923.509	6.38041
923.683	-0.49249
923.858	5.34132
924.032	-0.74716
924.206	9.71829
924.38	-0.56324
924.554	9.10471
924.728	-0.34666
924.902	11.67099
925.075	0.12893
925.249	9.47677
925.423	2.436
925.597	6.17369
925.771	-2.06733
925.945	5.8723
926.119	-1.50029
926.292	8.78486
926.466	-0.16274
926.64	7.79917
926.814	0.86242
926.987	6.20415
927.161	-0.80593
927.335	8.16908
927.508	-2.43956
927.682	5.4806
927.856	-0.26068
928.029	8.28984
928.203	1.65031
928.376	6.28249
928.55	-3.08826
928.723	4.7407
928.897	-2.27413
929.07	4.94744
929.244	-0.7341
929.417	8.02329
929.59	-0.15621
929.764	7.65447
929.937	-0.52841
930.111	6.15954
930.284	-0.24545
930.457	5.48386
930.63	-1.08781
930.804	7.18772
930.977	-1.86054
931.15	5.15853
931.323	1.12469
931.497	4.70914
931.67	-1.13787
931.843	10.22851
932.016	-2.8303
932.189	8.21913
932.362	3.66019
932.535	8.60535
932.708	-1.85292
932.881	9.00897
933.054	1.60678
933.227	7.35854
933.4	-3.04798
933.573	4.36639
933.746	0.18987
933.919	7.56526
934.092	-0.63071
934.264	7.45428
934.437	-3.96227
934.61	6.21068
934.783	0.40862
934.956	7.11809
935.128	0.83848
935.301	10.39169
935.474	0.09192
935.646	5.55676
935.819	-1.64722
935.992	8.87189
936.164	1.14537
936.337	8.74678
936.51	-2.18923
936.682	3.8887
936.855	-0.81246
937.027	7.70778
937.2	-1.59172
937.372	7.70125
937.545	-3.23955
937.717	7.87968
937.889	-1.88122
938.062	7.93082
938.234	0.20075
938.406	6.50771
938.579	-1.27718
938.751	11.5274
938.923	0.14307
939.096	10.13821
939.268	-1.30221
939.44	6.06162
939.612	0.77101
939.784	10.05445
939.957	-2.63548
940.129	8.37906
940.301	0.97125
940.473	6.75796
940.645	-1.53186
940.817	11.25435
940.989	-2.6333
941.161	7.23233
941.333	-3.47791
941.505	8.80553
941.677	-0.45549
941.849	9.30597
942.021	1.2814
942.193	5.74935
942.365	-3.17642
942.537	7.55111
942.708	-0.41958
942.88	9.30053
943.052	-4.17235
943.224	7.71757
943.395	-2.15549
943.567	5.88753
943.739	-2.71493
943.911	4.96049
944.082	-3.26132
944.254	8.72285
944.425	-1.66573
944.597	7.62292
944.769	-1.53186
944.94	5.94411
945.112	1.29664
945.283	6.94292
945.455	-2.14788
945.626	9.40715
945.798	-1.12699
945.969	5.82442
946.14	2.40662
946.312	7.1442
946.483	-3.70322
946.655	7.92973
946.826	-3.36145
946.997	8.68259
947.168	-5.46004
947.34	6.2455
947.511	0.15396
947.682	8.68912
947.853	-4.07112
948.025	10.78441
948.196	-4.21044
948.367	6.61652
948.538	-5.58739
948.709	5.99851
948.88	-4.8853
949.051	8.31922
949.222	-4.00908
949.393	9.69
949.564	-2.9805
949.735	7.22907
949.906	-2.89887
950.077	6.30534
950.248	-2.81506
950.419	5.28148
950.59	-0.12682
950.761	7.2443
950.931	-2.53425
951.102	9.7085
951.273	1.54149
951.444	4.99966
951.614	-1.77783
951.785	7.21927
951.956	-2.73343
952.126	12.12569
952.297	2.18571
952.468	7.13767
952.638	-1.53186
952.809	7.16487
952.98	-3.33859
953.15	9.80967
953.321	-0.54038
953.491	6.15954
953.662	-2.75085
953.832	6.77646
954.002	-0.3706
954.173	6.37824
954.343	-2.45807
954.514	6.091
954.684	-4.84176
954.854	4.98552
955.025	-2.00856
955.195	7.58702
955.365	-0.85599
955.535	3.60143
955.706	0.84828
955.876	6.2814
956.046	-0.87123
956.216	9.55837
956.386	-1.6026
956.557	9.90214
956.727	-2.00965
956.897	6.72749
957.067	-1.09761
957.237	9.87712
957.407	3.08782
957.577	7.97433
957.747	-3.43546
957.917	6.63284
958.087	-5.01048
958.257	7.57178
958.427	0.05275
958.596	3.15855
958.766	-0.93327
958.936	6.4544
959.106	-0.18886
959.276	6.96903
959.445	-2.75629
959.615	7.29979
959.785	2.15851
959.955	10.61144
960.124	-2.70078
960.294	6.69268
960.464	-2.95982
960.633	6.23135
960.803	-3.09043
960.972	7.45102
961.142	-2.38297
961.311	7.56417
961.481	-5.89763
961.65	3.90611
961.82	-1.90625
961.989	7.89274
962.159	-0.29769
962.328	5.80484
962.498	2.44035
962.667	3.68522
962.836	-2.55276
963.006	8.44977
963.175	1.65031
963.344	5.98981
963.513	-0.97898
963.683	6.52077
963.852	1.0039
964.021	7.24647
964.19	-1.37731
964.359	7.00603
964.528	-3.0839
964.698	7.18446
964.867	-4.10595
965.036	10.21436
965.205	0.76883
965.374	6.54253
965.543	-0.16491
965.712	9.1689
965.881	-1.26848
966.05	5.09106
966.219	-3.06213
966.387	7.64903
966.556	0.26823
966.725	7.13659
966.894	2.34459
967.063	9.42129
967.232	-0.43917
967.4	8.64451
967.569	-1.40778
967.738	6.17586
967.906	-3.99493
968.075	7.24647
968.244	-2.74976
968.412	8.61949
968.581	-1.11393
968.75	9.63996
968.918	-1.57104
969.087	6.97012
969.255	-4.86244
969.424	6.43699
969.592	-0.14532
969.761	6.74055
969.929	-4.05915
970.098	7.38574
970.266	-1.59063
970.434	8.20716
970.603	-0.42611
970.771	5.31956
970.939	-4.60447
971.108	9.17107
971.276	-2.5767
971.444	6.97339
971.612	-4.80693
971.781	10.07403
971.949	3.47521
972.117	4.72002
972.285	2.73525
972.453	5.62313
972.621	-1.76368
972.789	7.24756
972.957	-1.9204
973.125	6.63828
973.293	-1.65266
973.461	10.38842
973.629	-1.81919
973.797	7.46407
973.965	-0.93109
974.133	8.7359
974.301	-2.80962
974.469	4.72546
974.637	-1.16508
974.805	5.9452
974.972	-2.31984
975.14	9.17434
975.308	-6.04784
975.476	7.59028
975.643	-0.10288
975.811	5.12479
975.979	2.85604
976.146	6.50989
976.314	1.72975
976.482	6.01266
976.649	-2.53208
976.817	6.9179
976.984	-0.98224
977.152	6.34233
977.319	1.44355
977.487	4.67324
977.654	-2.9239
977.822	8.23545
977.989	-0.85708
978.156	8.0494
978.324	-3.77506
978.491	3.9714
978.658	-4.95932
978.826	6.62848
978.993	-3.11329
979.16	8.17234
979.328	-2.55276
979.495	6.57952
979.662	-4.38678
979.829	5.43054
979.996	-0.33469
980.163	7.99501
980.33	-3.42676
980.498	9.64866
980.665	-0.59371
980.832	5.03992
980.999	-1.97156
981.166	6.81889
981.333	0.2519
981.5	8.85884
981.667	1.10184
981.833	6.14105
982	-4.42705
982.167	6.42611
982.334	-4.02758
982.501	7.52826
982.668	-1.26521
982.834	5.38376
983.001	0.57077
983.168	9.49636
983.335	-1.39581
983.501	11.21737
983.668	-3.29941
983.835	6.37389
984.001	-1.80177
984.168	5.11935
984.334	0.51527
984.501	6.27379
984.668	-2.05101
984.834	6.05291
985.001	-3.93071
985.167	11.32071
985.334	-0.34122
985.5	7.51847
985.666	1.60787
985.833	6.1726
985.999	-0.45332
986.165	5.83313
986.332	0.32699
986.498	10.74742
986.664	-0.56868
986.831	7.42491
986.997	0.53377
987.163	7.8144
987.329	-3.85887
987.495	3.95181
987.662	0.63606
987.828	5.41749
987.994	1.4762
988.16	6.53056
988.326	-6.76194
988.492	8.43998
988.658	-1.93238
988.824	9.00788
988.99	-1.28807
989.156	10.1121
989.322	1.63181
989.488	7.37703
989.654	-0.81899
989.82	11.51543
989.985	-1.68858
990.151	9.69327
990.317	0.83631
990.483	8.45739
990.648	0.14199
990.814	5.745
990.98	-0.50555
991.146	7.24539
991.311	-1.03883
991.477	10.85403
991.643	-3.28853
991.808	5.4349
991.974	-1.03557
992.139	4.35551
992.305	2.02357
992.47	5.44251
992.636	2.74396
992.801	7.05716
992.967	-0.02888
993.132	6.78842
993.298	0.67089
993.463	7.24974
993.628	1.53061
993.794	4.88868
993.959	-0.56977
994.124	3.85388
994.29	-2.3046
994.455	9.03399
994.62	-1.14549
994.785	9.73787
994.95	-2.18706
995.116	9.22764
995.281	-4.33997
995.446	7.15399
995.611	-2.59412
995.776	9.78574
995.941	-2.94023
996.106	9.31141
996.271	-1.99332
996.436	7.95584
996.601	0.60015
996.766	7.01147
996.931	-1.99115
997.096	10.02399
997.261	-3.46485
997.425	9.85319
997.59	-0.33142
997.755	8.88168
997.92	-3.43546
998.085	5.68515
998.249	-3.9405
998.414	7.80788
998.579	-3.57805
998.744	6.86458
998.908	-2.84336
999.073	6.31078
999.237	-1.02251
999.402	3.63952
999.567	0.14852
999.731	8.38014
999.896	-6.71513
1000.06	8.74678
1000.225	-0.69275
1000.389	7.87751
1000.553	1.14428
1000.718	6.11058
1000.882	-0.48705
1001.047	4.61339
1001.211	-5.44915
1001.375	8.98395
1001.54	-4.32364
1001.704	6.63066
1001.868	1.03546
1002.032	7.93952
1002.197	1.4479
1002.361	5.01816
1002.525	-0.66989
1002.689	9.76616
1002.853	-5.23145
1003.017	4.94308
1003.181	-1.94108
1003.345	5.89406
1003.509	-0.36734
1003.673	7.17467
1003.837	-2.0521
1004.001	6.31296
1004.165	-0.0735
1004.329	7.99936
1004.493	-0.30748
1004.657	7.32699
1004.821	-2.14134
1004.985	6.07903
1005.149	-2.44392
1005.312	5.88971
1005.476	-2.4178
1005.64	10.30139
1005.804	-3.59547
1005.967	11.32615
1006.131	-0.21062
1006.295	4.75158
1006.458	-1.93891
1006.622	8.23436
1006.785	-3.72281
1006.949	4.98661
1007.113	0.87004
1007.276	5.23796
1007.44	0.43909
1007.603	8.48567
1007.767	-2.0804
1007.93	11.03135
1008.093	-1.74735
1008.257	4.7407
1008.42	-4.42596
1008.584	6.08882
1008.747	1.3652
1008.91	9.31468
1009.073	-4.47385
1009.237	7.67514
1009.4	3.02471
1009.563	4.38706
1009.726	-1.51988
1009.889	12.00277
1010.053	0.22143
1010.216	8.21804
1010.379	0.91684
1010.542	10.37972
1010.705	-1.09434
1010.868	8.25938
1011.031	-0.97789
1011.194	10.06641
1011.357	0.96254
1011.52	6.091
1011.683	-0.14097
1011.846	6.62087
1012.009	1.23678
1012.171	5.94846
1012.334	1.24222
1012.497	9.95436
1012.66	-4.04173
1012.823	6.33689
1012.985	-0.69492
1013.148	5.86468
1013.311	-5.20097
1013.473	5.15635
1013.636	-3.74349
1013.799	8.61405
1013.961	0.36073
1014.124	10.41344
1014.286	-1.73429
1014.449	4.93438
1014.612	-1.34248
1014.774	6.29772
1014.936	-1.05951
1015.099	4.41427
1015.261	-3.75764
1015.424	6.64045
1015.586	-2.8869
1015.748	8.75222
1015.911	-3.63792
1016.073	11.61551
1016.235	-1.84966
1016.398	6.49901
1016.56	-4.03302
1016.722	7.32263
1016.884	-1.36969
1017.047	10.8921
1017.209	-0.92129
1017.371	7.26715
1017.533	-1.85401
1017.695	9.75963
1017.857	-5.23471
1018.019	7.53153
1018.181	-1.13787
1018.343	8.20825
1018.505	-5.40126
1018.667	4.78749
1018.829	-0.55235
1018.991	11.97122
1019.153	-2.58541
1019.315	4.33483
1019.477	-0.10397
1019.638	11.82111
1019.8	-0.82879
1019.962	7.59681
1020.124	-2.87601
1020.285	6.23897
1020.447	-2.15223
1020.609	5.33371
1020.77	-3.79792
1020.932	10.00005
1021.094	-4.02649
1021.255	2.94092
1021.417	0.23558
1021.578	7.88621
1021.74	-1.14549
1021.901	7.11483
1022.063	-0.46638
1022.224	10.66583
1022.386	-2.67792
1022.547	7.17684
1022.709	-0.42284
1022.87	8.6369
1023.031	0.47609
1023.193	9.78791
1023.354	-4.51195
1023.515	7.62292
1023.676	-2.7084
1023.838	7.89818
1023.999	-1.8181
1024.16	7.92211
1024.321	-0.9583
1024.482	9.32991
1024.644	-0.55126
1024.805	8.16908
1024.966	2.98662
1025.127	7.23559
1025.288	-2.08801
1025.449	12.44442
1025.61	-2.53317
1025.771	7.38247
1025.932	-0.94524
1026.093	9.67586
1026.253	-0.22259
1026.414	3.85715
1026.575	-2.02815
1026.736	6.06924
1026.897	-1.19338
1027.058	8.69782
1027.218	2.40336
1027.379	2.57529
1027.54	0.9571
1027.7	5.90385
1027.861	0.26496
1028.022	8.32792
1028.182	0.44453
1028.343	9.38865
1028.504	-1.96503
1028.664	6.73293
1028.825	-3.01642
1028.985	8.03417
1029.146	-0.30748
1029.306	5.17049
1029.466	-0.35863
1029.627	10.14583
1029.787	-1.5656
1029.948	4.59272
1030.108	-2.28501
1030.268	11.22172
1030.429	-2.63874
1030.589	10.10993
1030.749	-0.82661
1030.909	7.77197
1031.07	-0.49576
1031.23	9.01876
1031.39	-0.7254
1031.55	10.35905
1031.71	-3.0556
1031.87	6.06815
1032.03	-0.69492
1032.19	5.68406
1032.35	-1.35663
1032.51	7.896
1032.67	-4.6208
1032.83	5.24448
1032.99	-0.5382
1033.15	7.9504
1033.31	0.04622
1033.47	6.07359
1033.63	-0.63942
1033.79	7.54676
1033.949	-4.64801
1034.109	9.61385
1034.269	-0.88211
1034.429	9.58992
1034.588	-0.16491
1034.748	8.92303
1034.908	-1.87034
1035.067	6.9179
1035.227	-1.62001
1035.387	8.54225
1035.546	-1.52206
1035.706	6.32928
1035.865	-3.5073
1036.025	6.52839
1036.184	-0.39346
1036.344	8.85013
1036.503	-2.32637
1036.662	10.29813
1036.822	-1.23365
1036.981	8.89148
1037.14	-2.63439
1037.3	5.74608
1037.459	0.51635
1037.618	4.3566
1037.778	-1.37731
1037.937	5.36526
1038.096	-4.93537
1038.255	5.64925
1038.414	-0.61765
1038.573	10.84315
1038.733	-0.89844
1038.892	9.72046
1039.051	-0.72104
1039.21	9.93043
1039.369	-5.52644
1039.528	10.64298
1039.687	-1.78218
1039.846	10.34382
1040.005	-4.31711
1040.164	8.21369
1040.322	-0.57085
1040.481	3.52961
1040.64	-4.40963
1040.799	7.85901
1040.958	1.89734
1041.116	9.22873
1041.275	0.12022
1041.434	5.51324
1041.593	-2.99574
1041.751	6.96251
1041.91	2.70696
1042.069	5.48168
1042.227	-2.48528
1042.386	7.10068
1042.544	-2.49072
1042.703	7.65556
1042.861	0.6143
1043.02	5.28039
1043.178	-3.24934
1043.337	7.59137
1043.495	-0.91803
1043.653	6.92225
1043.812	-0.51644
1043.97	9.09274
1044.129	0.92445
1044.287	5.4621
1044.445	0.32808
1044.603	8.45412
1044.762	-2.39167
1044.92	8.27788
1045.078	-2.408
1045.236	6.58279
1045.394	-2.17508
1045.552	6.99623
